frequency,raw,smoothed,error,error_smoothed,equalization,parametric_eq,fixed_band_eq,equalized_raw,equalized_smoothed,target
20.00,-4.99,-4.99,-12.75,-12.75,6.00,6.35,2.71,1.01,1.01,7.76
20.20,-4.92,-4.93,-12.68,-12.69,6.00,6.34,2.79,1.08,1.07,7.76
20.40,-4.86,-4.86,-12.62,-12.62,6.00,6.34,2.87,1.14,1.14,7.76
20.61,-4.80,-4.80,-12.56,-12.56,6.00,6.34,2.95,1.20,1.20,7.76
20.81,-4.73,-4.73,-12.49,-12.50,6.00,6.34,3.03,1.27,1.27,7.76
21.02,-4.67,-4.67,-12.43,-12.43,6.00,6.34,3.12,1.33,1.33,7.76
21.23,-4.60,-4.60,-12.36,-12.36,6.00,6.34,3.21,1.40,1.40,7.76
21.44,-4.54,-4.54,-12.30,-12.30,6.00,6.33,3.30,1.46,1.46,7.76
21.66,-4.47,-4.47,-12.23,-12.23,6.00,6.33,3.39,1.53,1.53,7.76
21.87,-4.40,-4.40,-12.16,-12.16,6.00,6.33,3.49,1.60,1.60,7.76
22.09,-4.33,-4.33,-12.09,-12.09,6.00,6.33,3.59,1.67,1.67,7.76
22.31,-4.26,-4.26,-12.02,-12.01,6.00,6.33,3.69,1.74,1.74,7.76
22.54,-4.18,-4.18,-11.94,-11.94,6.00,6.33,3.79,1.82,1.82,7.76
22.76,-4.11,-4.11,-11.86,-11.87,6.00,6.32,3.90,1.89,1.89,7.75
22.99,-4.04,-4.04,-11.79,-11.80,6.00,6.32,4.01,1.96,1.96,7.75
23.22,-3.98,-3.98,-11.73,-11.73,6.00,6.32,4.12,2.02,2.02,7.75
23.45,-3.91,-3.91,-11.66,-11.66,6.00,6.32,4.24,2.09,2.09,7.75
23.69,-3.84,-3.84,-11.59,-11.59,6.00,6.32,4.36,2.16,2.16,7.75
23.92,-3.78,-3.78,-11.53,-11.53,6.00,6.31,4.47,2.22,2.22,7.75
24.16,-3.71,-3.71,-11.46,-11.46,6.00,6.31,4.60,2.29,2.29,7.75
24.40,-3.65,-3.65,-11.40,-11.39,6.00,6.31,4.72,2.35,2.35,7.75
24.65,-3.58,-3.58,-11.33,-11.33,6.00,6.31,4.85,2.42,2.42,7.75
24.89,-3.52,-3.52,-11.26,-11.27,6.00,6.30,4.97,2.48,2.48,7.74
25.14,-3.46,-3.46,-11.20,-11.20,6.00,6.30,5.10,2.54,2.54,7.74
25.39,-3.40,-3.40,-11.14,-11.14,6.00,6.30,5.23,2.60,2.60,7.74
25.65,-3.33,-3.33,-11.07,-11.07,6.00,6.30,5.37,2.67,2.67,7.74
25.91,-3.27,-3.27,-11.01,-11.01,6.00,6.29,5.50,2.73,2.73,7.74
26.16,-3.21,-3.21,-10.95,-10.95,6.00,6.29,5.63,2.79,2.79,7.74
26.43,-3.15,-3.15,-10.89,-10.88,6.00,6.29,5.76,2.85,2.85,7.74
26.69,-3.08,-3.08,-10.81,-10.82,6.00,6.29,5.89,2.92,2.92,7.73
26.96,-3.02,-3.02,-10.75,-10.75,6.00,6.28,6.02,2.98,2.98,7.73
27.23,-2.95,-2.95,-10.68,-10.68,6.00,6.28,6.15,3.05,3.05,7.73
27.50,-2.89,-2.89,-10.62,-10.62,6.00,6.28,6.27,3.11,3.11,7.73
27.77,-2.83,-2.83,-10.56,-10.56,6.00,6.27,6.39,3.17,3.17,7.73
28.05,-2.77,-2.77,-10.49,-10.50,6.00,6.27,6.51,3.23,3.23,7.72
28.33,-2.72,-2.72,-10.44,-10.44,6.00,6.27,6.62,3.28,3.28,7.72
28.62,-2.66,-2.66,-10.38,-10.38,6.00,6.26,6.73,3.34,3.34,7.72
28.90,-2.60,-2.61,-10.32,-10.32,6.00,6.26,6.83,3.40,3.39,7.72
29.19,-2.55,-2.55,-10.27,-10.27,6.00,6.26,6.92,3.45,3.45,7.72
29.48,-2.50,-2.50,-10.21,-10.21,6.00,6.25,7.01,3.50,3.50,7.71
29.78,-2.44,-2.45,-10.15,-10.16,6.00,6.25,7.09,3.56,3.55,7.71
30.08,-2.39,-2.39,-10.10,-10.10,6.00,6.25,7.15,3.61,3.61,7.71
30.38,-2.33,-2.33,-10.04,-10.04,6.00,6.24,7.21,3.67,3.67,7.70
30.68,-2.27,-2.27,-9.97,-9.97,6.00,6.24,7.26,3.73,3.73,7.70
30.99,-2.21,-2.21,-9.91,-9.91,6.00,6.23,7.30,3.79,3.79,7.70
31.30,-2.16,-2.16,-9.86,-9.85,6.00,6.23,7.33,3.84,3.84,7.70
31.61,-2.10,-2.10,-9.79,-9.79,6.00,6.22,7.35,3.90,3.90,7.69
31.93,-2.04,-2.05,-9.73,-9.74,6.00,6.22,7.35,3.96,3.95,7.69
32.24,-1.99,-1.99,-9.68,-9.68,6.00,6.22,7.35,4.01,4.01,7.69
32.57,-1.94,-1.94,-9.62,-9.62,6.00,6.21,7.34,4.06,4.06,7.68
32.89,-1.88,-1.88,-9.56,-9.56,6.00,6.21,7.32,4.12,4.12,7.68
33.22,-1.81,-1.81,-9.49,-9.49,6.00,6.20,7.29,4.19,4.19,7.68
33.55,-1.74,-1.74,-9.41,-9.41,6.00,6.20,7.25,4.26,4.26,7.67
33.89,-1.67,-1.67,-9.34,-9.34,6.00,6.19,7.21,4.33,4.33,7.67
34.23,-1.61,-1.61,-9.27,-9.27,6.00,6.19,7.16,4.39,4.39,7.66
34.57,-1.54,-1.55,-9.20,-9.21,6.00,6.18,7.10,4.46,4.45,7.66
34.92,-1.49,-1.49,-9.15,-9.14,6.00,6.18,7.04,4.51,4.51,7.65
35.27,-1.44,-1.44,-9.09,-9.09,6.00,6.17,6.98,4.56,4.56,7.65
35.62,-1.39,-1.40,-9.04,-9.04,6.00,6.16,6.91,4.61,4.60,7.64
35.97,-1.35,-1.35,-8.99,-8.99,6.00,6.16,6.84,4.65,4.65,7.64
36.33,-1.30,-1.30,-8.93,-8.93,6.00,6.15,6.77,4.70,4.70,7.63
36.70,-1.24,-1.24,-8.87,-8.87,6.00,6.15,6.69,4.76,4.76,7.63
37.06,-1.19,-1.19,-8.81,-8.81,6.00,6.14,6.62,4.81,4.81,7.62
37.43,-1.14,-1.14,-8.76,-8.76,6.00,6.13,6.54,4.86,4.86,7.62
37.81,-1.09,-1.09,-8.70,-8.70,6.00,6.13,6.47,4.91,4.91,7.61
38.19,-1.04,-1.04,-8.65,-8.65,6.00,6.12,6.40,4.96,4.96,7.60
38.57,-0.99,-0.99,-8.59,-8.59,6.00,6.12,6.33,5.01,5.01,7.60
38.95,-0.94,-0.94,-8.53,-8.53,6.00,6.11,6.26,5.06,5.06,7.59
39.34,-0.88,-0.88,-8.46,-8.47,6.00,6.10,6.20,5.12,5.12,7.58
39.74,-0.83,-0.83,-8.41,-8.41,6.00,6.09,6.13,5.17,5.17,7.58
40.14,-0.78,-0.78,-8.35,-8.35,6.00,6.09,6.08,5.22,5.22,7.57
40.54,-0.73,-0.73,-8.29,-8.30,6.00,6.08,6.02,5.27,5.27,7.56
40.94,-0.69,-0.69,-8.24,-8.24,6.00,6.07,5.97,5.31,5.31,7.55
41.35,-0.65,-0.65,-8.20,-8.20,6.00,6.07,5.92,5.35,5.35,7.55
41.76,-0.61,-0.61,-8.15,-8.15,6.00,6.06,5.87,5.39,5.39,7.54
42.18,-0.57,-0.57,-8.10,-8.10,6.00,6.05,5.83,5.43,5.43,7.53
42.60,-0.52,-0.52,-8.04,-8.04,6.00,6.04,5.80,5.48,5.48,7.52
43.03,-0.48,-0.48,-7.99,-7.99,6.00,6.04,5.76,5.52,5.52,7.51
43.46,-0.43,-0.43,-7.93,-7.93,6.00,6.03,5.74,5.57,5.57,7.50
43.90,-0.39,-0.39,-7.88,-7.88,6.00,6.02,5.71,5.61,5.61,7.49
44.33,-0.34,-0.34,-7.82,-7.82,6.00,6.02,5.69,5.66,5.66,7.48
44.78,-0.30,-0.30,-7.77,-7.76,6.00,6.01,5.68,5.70,5.70,7.47
45.23,-0.25,-0.25,-7.71,-7.70,6.00,6.00,5.67,5.75,5.75,7.45
45.68,-0.20,-0.21,-7.64,-7.65,6.00,5.99,5.66,5.80,5.79,7.44
46.13,-0.16,-0.16,-7.59,-7.59,6.00,5.99,5.66,5.84,5.84,7.43
46.60,-0.11,-0.11,-7.53,-7.53,6.00,5.98,5.66,5.89,5.89,7.42
47.06,-0.06,-0.06,-7.46,-7.46,6.00,5.98,5.67,5.94,5.94,7.40
47.53,-0.01,-0.01,-7.40,-7.40,6.00,5.97,5.68,5.99,5.99,7.39
48.01,0.05,0.05,-7.33,-7.33,6.00,5.97,5.69,6.05,6.05,7.38
48.49,0.10,0.10,-7.26,-7.26,6.00,5.96,5.71,6.10,6.10,7.36
48.97,0.15,0.15,-7.20,-7.20,6.00,5.96,5.73,6.15,6.15,7.35
49.46,0.19,0.19,-7.14,-7.14,6.00,5.95,5.76,6.19,6.19,7.33
49.96,0.22,0.22,-7.09,-7.09,6.00,5.95,5.78,6.22,6.22,7.31
50.46,0.26,0.26,-7.04,-7.04,6.00,5.95,5.81,6.26,6.26,7.30
50.96,0.29,0.29,-6.99,-6.99,6.00,5.95,5.84,6.29,6.29,7.28
51.47,0.33,0.33,-6.93,-6.93,6.00,5.95,5.88,6.33,6.33,7.26
51.99,0.38,0.38,-6.86,-6.86,6.00,5.95,5.91,6.38,6.38,7.24
52.51,0.43,0.43,-6.79,-6.79,6.00,5.95,5.95,6.43,6.43,7.22
53.03,0.48,0.48,-6.72,-6.73,6.00,5.95,5.99,6.48,6.48,7.20
53.56,0.52,0.52,-6.66,-6.66,6.00,5.96,6.02,6.52,6.52,7.18
54.10,0.56,0.56,-6.60,-6.60,6.00,5.96,6.06,6.56,6.56,7.16
54.64,0.59,0.59,-6.55,-6.55,6.00,5.97,6.10,6.59,6.59,7.14
55.18,0.62,0.62,-6.50,-6.49,6.00,5.97,6.13,6.62,6.62,7.12
55.74,0.66,0.66,-6.43,-6.44,6.00,5.98,6.16,6.66,6.66,7.09
56.29,0.69,0.69,-6.38,-6.38,6.00,5.98,6.19,6.69,6.70,7.07
56.86,0.73,0.73,-6.31,-6.32,6.01,5.99,6.22,6.74,6.74,7.04
57.42,0.76,0.76,-6.26,-6.26,6.01,5.99,6.24,6.77,6.77,7.02
58.00,0.79,0.79,-6.20,-6.20,6.01,5.98,6.26,6.80,6.80,6.99
58.58,0.83,0.83,-6.14,-6.14,6.00,5.97,6.27,6.83,6.83,6.96
59.16,0.86,0.86,-6.08,-6.07,5.99,5.96,6.28,6.84,6.85,6.94
59.76,0.90,0.90,-6.01,-6.01,5.96,5.94,6.28,6.86,6.86,6.91
60.35,0.94,0.93,-5.94,-5.94,5.92,5.91,6.27,6.86,6.86,6.88
60.96,0.97,0.97,-5.88,-5.88,5.88,5.88,6.26,6.85,6.85,6.85
61.57,1.00,1.00,-5.82,-5.81,5.82,5.84,6.24,6.82,6.83,6.82
62.18,1.04,1.04,-5.74,-5.75,5.76,5.79,6.21,6.80,6.80,6.78
62.80,1.07,1.07,-5.68,-5.68,5.69,5.73,6.17,6.76,6.76,6.75
63.43,1.10,1.10,-5.62,-5.62,5.62,5.67,6.13,6.72,6.72,6.72
64.07,1.13,1.13,-5.55,-5.55,5.55,5.60,6.08,6.68,6.68,6.68
64.71,1.16,1.16,-5.49,-5.49,5.48,5.53,6.02,6.64,6.64,6.64
65.35,1.19,1.19,-5.42,-5.42,5.42,5.45,5.95,6.61,6.61,6.61
66.01,1.22,1.22,-5.35,-5.35,5.35,5.38,5.88,6.57,6.57,6.57
66.67,1.25,1.25,-5.28,-5.28,5.28,5.30,5.80,6.53,6.53,6.53
67.33,1.28,1.28,-5.21,-5.21,5.21,5.22,5.71,6.49,6.49,6.49
68.01,1.31,1.31,-5.14,-5.14,5.14,5.14,5.62,6.45,6.45,6.45
68.69,1.34,1.34,-5.07,-5.07,5.07,5.06,5.52,6.41,6.41,6.41
69.37,1.37,1.37,-4.99,-4.99,4.99,4.98,5.42,6.36,6.36,6.36
70.07,1.40,1.40,-4.92,-4.92,4.92,4.90,5.31,6.32,6.32,6.32
70.77,1.43,1.43,-4.85,-4.85,4.85,4.82,5.20,6.28,6.28,6.27
71.48,1.46,1.46,-4.77,-4.77,4.77,4.74,5.09,6.23,6.23,6.23
72.19,1.48,1.48,-4.70,-4.70,4.70,4.67,4.97,6.18,6.18,6.18
72.91,1.51,1.51,-4.62,-4.62,4.62,4.59,4.85,6.13,6.13,6.13
73.64,1.54,1.53,-4.54,-4.55,4.55,4.51,4.73,6.09,6.08,6.08
74.38,1.56,1.56,-4.47,-4.47,4.47,4.43,4.61,6.03,6.03,6.03
75.12,1.59,1.59,-4.39,-4.39,4.39,4.36,4.49,5.98,5.98,5.98
75.87,1.62,1.62,-4.31,-4.31,4.32,4.28,4.37,5.93,5.93,5.93
76.63,1.64,1.64,-4.24,-4.23,4.24,4.20,4.25,5.88,5.88,5.88
77.40,1.67,1.67,-4.15,-4.16,4.16,4.12,4.13,5.83,5.82,5.82
78.17,1.69,1.69,-4.08,-4.08,4.08,4.05,4.01,5.77,5.77,5.77
78.95,1.71,1.71,-4.00,-4.00,4.00,3.97,3.89,5.71,5.71,5.71
79.74,1.74,1.73,-3.91,-3.92,3.92,3.89,3.77,5.66,5.65,5.65
80.54,1.76,1.76,-3.84,-3.84,3.84,3.81,3.65,5.59,5.59,5.60
81.35,1.78,1.78,-3.76,-3.75,3.75,3.73,3.54,5.53,5.54,5.54
82.16,1.81,1.81,-3.67,-3.67,3.67,3.65,3.42,5.48,5.48,5.48
82.98,1.83,1.83,-3.59,-3.59,3.59,3.57,3.31,5.42,5.42,5.42
83.81,1.85,1.85,-3.50,-3.50,3.50,3.49,3.20,5.35,5.35,5.35
84.65,1.87,1.87,-3.42,-3.42,3.42,3.40,3.09,5.29,5.29,5.29
85.50,1.89,1.89,-3.34,-3.33,3.33,3.32,2.99,5.22,5.23,5.23
86.35,1.92,1.92,-3.24,-3.25,3.25,3.24,2.88,5.17,5.16,5.16
87.22,1.94,1.94,-3.16,-3.16,3.16,3.15,2.78,5.10,5.10,5.10
88.09,1.96,1.96,-3.07,-3.07,3.07,3.07,2.68,5.03,5.03,5.03
88.97,1.98,1.98,-2.99,-2.99,2.99,2.98,2.58,4.96,4.96,4.96
89.86,2.00,2.00,-2.90,-2.90,2.90,2.90,2.48,4.90,4.90,4.90
90.76,2.02,2.02,-2.81,-2.81,2.81,2.81,2.39,4.83,4.83,4.83
91.66,2.04,2.04,-2.72,-2.72,2.72,2.72,2.29,4.76,4.76,4.76
92.58,2.06,2.06,-2.63,-2.63,2.63,2.63,2.20,4.69,4.69,4.69
93.51,2.08,2.08,-2.54,-2.54,2.54,2.54,2.11,4.62,4.62,4.62
94.44,2.10,2.10,-2.45,-2.45,2.46,2.46,2.03,4.56,4.55,4.55
95.39,2.11,2.11,-2.37,-2.37,2.37,2.37,1.94,4.48,4.48,4.48
96.34,2.13,2.13,-2.28,-2.28,2.28,2.28,1.86,4.41,4.41,4.41
97.30,2.14,2.14,-2.20,-2.20,2.20,2.19,1.78,4.34,4.34,4.34
98.28,2.15,2.15,-2.12,-2.11,2.11,2.10,1.70,4.26,4.26,4.27
99.26,2.17,2.17,-2.02,-2.03,2.03,2.02,1.62,4.19,4.19,4.19
100.25,2.18,2.18,-1.94,-1.94,1.94,1.93,1.54,4.12,4.12,4.12
101.25,2.20,2.20,-1.85,-1.85,1.85,1.84,1.46,4.05,4.05,4.05
102.27,2.21,2.21,-1.77,-1.76,1.76,1.75,1.39,3.97,3.98,3.98
103.29,2.23,2.23,-1.67,-1.68,1.68,1.67,1.32,3.91,3.90,3.90
104.32,2.24,2.24,-1.59,-1.59,1.59,1.58,1.25,3.83,3.83,3.83
105.37,2.25,2.25,-1.51,-1.50,1.50,1.50,1.18,3.75,3.76,3.76
106.42,2.27,2.27,-1.41,-1.42,1.42,1.42,1.11,3.69,3.68,3.68
107.48,2.28,2.28,-1.33,-1.33,1.33,1.33,1.04,3.61,3.61,3.61
108.56,2.29,2.29,-1.25,-1.25,1.25,1.25,0.98,3.54,3.54,3.54
109.64,2.30,2.30,-1.17,-1.16,1.16,1.17,0.91,3.46,3.46,3.47
110.74,2.32,2.31,-1.07,-1.08,1.08,1.09,0.85,3.39,3.39,3.39
111.85,2.33,2.33,-0.99,-0.99,0.99,1.01,0.79,3.32,3.32,3.32
112.97,2.34,2.34,-0.91,-0.90,0.91,0.93,0.73,3.25,3.25,3.25
114.10,2.36,2.36,-0.82,-0.82,0.82,0.85,0.67,3.18,3.18,3.18
115.24,2.37,2.37,-0.74,-0.74,0.74,0.77,0.62,3.11,3.11,3.11
116.39,2.38,2.38,-0.66,-0.65,0.66,0.69,0.56,3.03,3.04,3.03
117.55,2.39,2.39,-0.57,-0.57,0.57,0.62,0.51,2.96,2.96,2.96
118.73,2.40,2.40,-0.49,-0.49,0.49,0.54,0.46,2.89,2.89,2.89
119.92,2.41,2.41,-0.42,-0.42,0.41,0.46,0.41,2.82,2.82,2.82
121.12,2.42,2.42,-0.34,-0.34,0.34,0.39,0.36,2.76,2.76,2.76
122.33,2.43,2.43,-0.26,-0.26,0.26,0.31,0.31,2.69,2.69,2.69
123.55,2.44,2.44,-0.18,-0.18,0.18,0.24,0.26,2.62,2.62,2.62
124.79,2.44,2.44,-0.11,-0.11,0.11,0.16,0.22,2.55,2.55,2.55
126.03,2.45,2.45,-0.04,-0.04,0.04,0.09,0.18,2.49,2.49,2.49
127.29,2.46,2.46,0.04,0.04,-0.04,0.02,0.13,2.42,2.42,2.42
128.57,2.47,2.47,0.11,0.11,-0.11,-0.05,0.09,2.36,2.36,2.36
129.85,2.47,2.47,0.18,0.18,-0.18,-0.13,0.05,2.29,2.29,2.29
131.15,2.48,2.48,0.25,0.25,-0.25,-0.20,0.01,2.23,2.23,2.23
132.46,2.48,2.48,0.31,0.31,-0.32,-0.27,-0.03,2.16,2.17,2.17
133.79,2.49,2.49,0.38,0.38,-0.38,-0.34,-0.06,2.11,2.11,2.11
135.12,2.50,2.50,0.45,0.45,-0.45,-0.41,-0.10,2.05,2.05,2.05
136.48,2.50,2.50,0.51,0.52,-0.51,-0.48,-0.14,1.98,1.99,1.99
137.84,2.51,2.51,0.58,0.58,-0.58,-0.54,-0.17,1.93,1.93,1.93
139.22,2.51,2.51,0.64,0.64,-0.64,-0.61,-0.21,1.87,1.87,1.87
140.61,2.52,2.52,0.71,0.70,-0.70,-0.68,-0.24,1.82,1.81,1.81
142.02,2.52,2.52,0.76,0.76,-0.76,-0.74,-0.27,1.76,1.76,1.76
143.44,2.52,2.52,0.82,0.82,-0.82,-0.80,-0.31,1.70,1.70,1.70
144.87,2.53,2.53,0.88,0.88,-0.88,-0.87,-0.34,1.65,1.65,1.65
146.32,2.53,2.53,0.93,0.93,-0.93,-0.93,-0.37,1.60,1.60,1.60
147.78,2.53,2.53,0.98,0.98,-0.99,-0.99,-0.41,1.54,1.54,1.55
149.26,2.53,2.53,1.03,1.04,-1.04,-1.05,-0.44,1.49,1.49,1.50
150.75,2.54,2.54,1.09,1.09,-1.09,-1.11,-0.47,1.45,1.45,1.45
152.26,2.54,2.54,1.14,1.14,-1.14,-1.16,-0.51,1.40,1.40,1.40
153.78,2.54,2.54,1.19,1.19,-1.19,-1.22,-0.54,1.35,1.35,1.35
155.32,2.54,2.54,1.24,1.24,-1.24,-1.27,-0.58,1.30,1.30,1.30
156.88,2.54,2.54,1.28,1.28,-1.28,-1.33,-0.61,1.26,1.26,1.26
158.44,2.54,2.54,1.33,1.32,-1.33,-1.38,-0.65,1.21,1.21,1.21
160.03,2.53,2.53,1.36,1.37,-1.37,-1.43,-0.68,1.16,1.17,1.17
161.63,2.53,2.53,1.41,1.41,-1.41,-1.48,-0.72,1.12,1.12,1.12
163.24,2.53,2.52,1.45,1.45,-1.45,-1.52,-0.76,1.08,1.08,1.08
164.88,2.52,2.52,1.48,1.49,-1.49,-1.57,-0.79,1.03,1.04,1.04
166.53,2.52,2.52,1.52,1.52,-1.52,-1.61,-0.83,1.00,1.00,1.00
168.19,2.52,2.52,1.56,1.56,-1.56,-1.65,-0.87,0.96,0.96,0.96
169.87,2.51,2.51,1.59,1.59,-1.59,-1.70,-0.91,0.92,0.92,0.92
171.57,2.51,2.51,1.62,1.62,-1.62,-1.73,-0.96,0.89,0.88,0.88
173.29,2.50,2.50,1.65,1.65,-1.65,-1.77,-1.00,0.85,0.85,0.85
175.02,2.50,2.50,1.68,1.68,-1.68,-1.81,-1.04,0.82,0.82,0.81
176.77,2.49,2.49,1.71,1.71,-1.71,-1.84,-1.09,0.78,0.78,0.78
178.54,2.48,2.48,1.73,1.73,-1.73,-1.87,-1.13,0.75,0.75,0.75
180.32,2.47,2.47,1.75,1.75,-1.75,-1.90,-1.18,0.72,0.72,0.72
182.13,2.46,2.46,1.77,1.77,-1.77,-1.93,-1.23,0.68,0.68,0.69
183.95,2.45,2.45,1.79,1.79,-1.80,-1.96,-1.27,0.65,0.65,0.66
185.79,2.44,2.44,1.81,1.81,-1.82,-1.99,-1.32,0.62,0.62,0.63
187.65,2.43,2.43,1.83,1.83,-1.84,-2.01,-1.37,0.59,0.60,0.60
189.52,2.43,2.43,1.86,1.85,-1.85,-2.03,-1.42,0.57,0.57,0.57
191.42,2.42,2.42,1.87,1.88,-1.87,-2.05,-1.48,0.55,0.55,0.54
193.33,2.41,2.41,1.89,1.89,-1.89,-2.07,-1.53,0.52,0.52,0.52
195.27,2.40,2.40,1.91,1.90,-1.90,-2.09,-1.58,0.50,0.49,0.49
197.22,2.38,2.38,1.91,1.91,-1.91,-2.10,-1.63,0.46,0.47,0.47
199.19,2.37,2.37,1.92,1.92,-1.93,-2.12,-1.69,0.44,0.44,0.45
201.18,2.36,2.36,1.94,1.93,-1.93,-2.13,-1.74,0.43,0.42,0.42
203.19,2.34,2.34,1.94,1.94,-1.94,-2.14,-1.80,0.40,0.40,0.40
205.23,2.33,2.33,1.95,1.95,-1.95,-2.15,-1.85,0.38,0.38,0.38
207.28,2.31,2.31,1.95,1.95,-1.95,-2.15,-1.91,0.36,0.36,0.36
209.35,2.30,2.30,1.96,1.96,-1.96,-2.16,-1.96,0.34,0.34,0.34
211.44,2.28,2.28,1.96,1.96,-1.96,-2.16,-2.01,0.32,0.32,0.32
213.56,2.27,2.27,1.97,1.97,-1.97,-2.16,-2.06,0.30,0.30,0.30
215.69,2.25,2.25,1.97,1.97,-1.97,-2.17,-2.11,0.28,0.28,0.28
217.85,2.24,2.24,1.98,1.97,-1.97,-2.16,-2.16,0.27,0.27,0.26
220.03,2.22,2.22,1.97,1.98,-1.97,-2.16,-2.21,0.25,0.25,0.25
222.23,2.21,2.21,1.98,1.98,-1.97,-2.16,-2.26,0.23,0.23,0.23
224.45,2.19,2.19,1.98,1.98,-1.97,-2.15,-2.30,0.21,0.21,0.21
226.70,2.17,2.17,1.97,1.97,-1.98,-2.15,-2.34,0.19,0.20,0.20
228.96,2.16,2.16,1.98,1.97,-1.98,-2.14,-2.38,0.18,0.18,0.18
231.25,2.14,2.14,1.97,1.97,-1.98,-2.13,-2.41,0.16,0.16,0.17
233.57,2.13,2.13,1.97,1.98,-1.98,-2.12,-2.44,0.15,0.15,0.16
235.90,2.11,2.11,1.98,1.98,-1.97,-2.11,-2.47,0.13,0.14,0.13
238.26,2.10,2.10,1.98,1.98,-1.97,-2.10,-2.50,0.13,0.12,0.12
240.64,2.08,2.08,1.97,1.97,-1.97,-2.09,-2.51,0.11,0.11,0.11
243.05,2.06,2.06,1.97,1.97,-1.96,-2.07,-2.53,0.09,0.10,0.09
245.48,2.04,2.04,1.96,1.96,-1.96,-2.06,-2.54,0.08,0.08,0.08
247.93,2.02,2.02,1.95,1.95,-1.95,-2.04,-2.55,0.07,0.07,0.07
250.41,2.00,2.00,1.94,1.94,-1.95,-2.03,-2.55,0.05,0.06,0.06
252.92,1.99,1.99,1.94,1.94,-1.94,-2.01,-2.54,0.05,0.05,0.05
255.45,1.97,1.97,1.93,1.93,-1.93,-1.99,-2.54,0.04,0.04,0.04
258.00,1.95,1.95,1.92,1.92,-1.92,-1.97,-2.52,0.03,0.03,0.03
260.58,1.93,1.93,1.91,1.91,-1.91,-1.95,-2.51,0.02,0.02,0.02
263.19,1.91,1.91,1.90,1.90,-1.90,-1.93,-2.48,0.01,0.01,0.01
265.82,1.89,1.89,1.89,1.88,-1.88,-1.91,-2.46,0.01,0.00,0.00
268.48,1.86,1.86,1.87,1.87,-1.87,-1.89,-2.43,-0.01,-0.01,-0.01
271.16,1.84,1.84,1.85,1.85,-1.86,-1.87,-2.40,-0.02,-0.02,-0.01
273.87,1.82,1.82,1.84,1.84,-1.85,-1.84,-2.36,-0.03,-0.03,-0.02
276.61,1.80,1.80,1.83,1.83,-1.83,-1.82,-2.32,-0.03,-0.03,-0.03
279.38,1.79,1.78,1.83,1.82,-1.82,-1.79,-2.28,-0.03,-0.04,-0.04
282.17,1.77,1.77,1.81,1.81,-1.81,-1.77,-2.23,-0.04,-0.04,-0.04
284.99,1.75,1.75,1.79,1.79,-1.80,-1.75,-2.19,-0.05,-0.04,-0.04
287.84,1.74,1.74,1.78,1.78,-1.78,-1.72,-2.14,-0.04,-0.04,-0.04
290.72,1.72,1.72,1.76,1.77,-1.77,-1.70,-2.09,-0.05,-0.04,-0.04
293.63,1.71,1.71,1.76,1.75,-1.75,-1.67,-2.03,-0.04,-0.04,-0.05
296.57,1.69,1.69,1.74,1.74,-1.73,-1.64,-1.98,-0.04,-0.04,-0.05
299.53,1.67,1.67,1.71,1.72,-1.72,-1.62,-1.92,-0.05,-0.05,-0.04
302.53,1.65,1.65,1.70,1.69,-1.70,-1.59,-1.87,-0.05,-0.05,-0.05
305.55,1.63,1.63,1.67,1.68,-1.68,-1.56,-1.81,-0.05,-0.05,-0.04
308.61,1.62,1.62,1.67,1.66,-1.66,-1.54,-1.76,-0.04,-0.05,-0.05
311.69,1.60,1.60,1.64,1.64,-1.64,-1.51,-1.70,-0.04,-0.04,-0.04
314.81,1.58,1.58,1.63,1.63,-1.62,-1.48,-1.64,-0.04,-0.04,-0.05
317.96,1.56,1.56,1.60,1.60,-1.60,-1.45,-1.59,-0.04,-0.05,-0.04
321.14,1.54,1.54,1.59,1.58,-1.58,-1.43,-1.53,-0.04,-0.04,-0.05
324.35,1.52,1.52,1.56,1.56,-1.56,-1.40,-1.48,-0.04,-0.04,-0.04
327.59,1.50,1.50,1.53,1.54,-1.54,-1.37,-1.42,-0.04,-0.04,-0.04
330.87,1.48,1.48,1.52,1.52,-1.52,-1.34,-1.37,-0.04,-0.04,-0.04
334.18,1.46,1.46,1.49,1.49,-1.49,-1.31,-1.31,-0.03,-0.03,-0.03
337.52,1.43,1.43,1.47,1.47,-1.46,-1.29,-1.26,-0.03,-0.03,-0.04
340.90,1.41,1.41,1.44,1.44,-1.44,-1.26,-1.21,-0.03,-0.03,-0.03
344.30,1.38,1.38,1.40,1.41,-1.41,-1.23,-1.16,-0.03,-0.03,-0.02
347.75,1.36,1.36,1.38,1.38,-1.38,-1.20,-1.11,-0.02,-0.02,-0.02
351.23,1.33,1.33,1.35,1.34,-1.35,-1.17,-1.06,-0.02,-0.02,-0.02
354.74,1.30,1.30,1.30,1.31,-1.31,-1.14,-1.01,-0.01,-0.01,-0.00
358.28,1.28,1.28,1.29,1.28,-1.28,-1.12,-0.96,-0.00,-0.00,-0.01
361.87,1.25,1.25,1.25,1.25,-1.25,-1.09,-0.91,0.00,0.00,0.00
365.49,1.22,1.22,1.21,1.22,-1.21,-1.06,-0.87,0.01,0.01,0.01
369.14,1.19,1.19,1.18,1.18,-1.18,-1.03,-0.82,0.01,0.01,0.01
372.83,1.16,1.16,1.14,1.14,-1.14,-1.00,-0.78,0.01,0.01,0.02
376.56,1.13,1.13,1.11,1.11,-1.11,-0.97,-0.73,0.02,0.02,0.02
380.33,1.10,1.10,1.07,1.07,-1.07,-0.94,-0.69,0.03,0.03,0.03
384.13,1.07,1.07,1.04,1.04,-1.04,-0.91,-0.65,0.03,0.03,0.03
387.97,1.04,1.04,1.01,1.00,-1.00,-0.89,-0.61,0.04,0.04,0.03
391.85,1.01,1.01,0.96,0.97,-0.97,-0.86,-0.57,0.04,0.04,0.05
395.77,0.98,0.98,0.93,0.93,-0.93,-0.83,-0.53,0.05,0.05,0.05
399.73,0.95,0.95,0.89,0.89,-0.89,-0.80,-0.49,0.06,0.06,0.06
403.72,0.92,0.92,0.85,0.85,-0.85,-0.77,-0.45,0.06,0.06,0.07
407.76,0.88,0.88,0.82,0.81,-0.82,-0.74,-0.41,0.06,0.07,0.06
411.84,0.85,0.85,0.78,0.78,-0.78,-0.71,-0.38,0.07,0.07,0.07
415.96,0.82,0.82,0.74,0.74,-0.74,-0.68,-0.34,0.08,0.08,0.08
420.12,0.79,0.79,0.71,0.70,-0.70,-0.65,-0.31,0.09,0.08,0.08
424.32,0.75,0.75,0.66,0.66,-0.67,-0.62,-0.27,0.08,0.09,0.09
428.56,0.72,0.72,0.62,0.63,-0.63,-0.59,-0.24,0.09,0.09,0.10
432.85,0.69,0.69,0.59,0.59,-0.59,-0.56,-0.20,0.10,0.10,0.10
437.18,0.66,0.66,0.56,0.56,-0.55,-0.53,-0.17,0.11,0.11,0.10
441.55,0.63,0.63,0.52,0.52,-0.52,-0.50,-0.14,0.11,0.12,0.11
445.96,0.61,0.61,0.49,0.48,-0.48,-0.47,-0.11,0.13,0.13,0.12
450.42,0.58,0.58,0.44,0.44,-0.44,-0.44,-0.08,0.14,0.14,0.14
454.93,0.55,0.55,0.40,0.40,-0.41,-0.41,-0.05,0.14,0.14,0.15
459.48,0.52,0.52,0.36,0.37,-0.37,-0.38,-0.02,0.15,0.15,0.16
464.07,0.49,0.49,0.33,0.33,-0.33,-0.35,0.00,0.16,0.16,0.15
468.71,0.46,0.46,0.30,0.30,-0.29,-0.32,0.03,0.17,0.17,0.16
473.40,0.43,0.43,0.26,0.26,-0.26,-0.28,0.06,0.17,0.17,0.17
478.13,0.40,0.40,0.22,0.22,-0.22,-0.25,0.08,0.18,0.18,0.18
482.91,0.37,0.37,0.18,0.18,-0.18,-0.22,0.10,0.19,0.19,0.19
487.74,0.34,0.34,0.14,0.14,-0.14,-0.19,0.13,0.20,0.20,0.20
492.62,0.31,0.31,0.10,0.10,-0.10,-0.15,0.15,0.21,0.21,0.21
497.55,0.28,0.28,0.06,0.06,-0.05,-0.12,0.17,0.22,0.22,0.22
502.52,0.24,0.24,0.01,0.01,-0.01,-0.08,0.19,0.23,0.23,0.23
507.55,0.21,0.21,-0.04,-0.03,0.03,-0.05,0.21,0.24,0.24,0.25
512.62,0.18,0.17,-0.08,-0.08,0.08,-0.01,0.23,0.25,0.25,0.26
517.75,0.14,0.14,-0.13,-0.12,0.12,0.02,0.25,0.26,0.26,0.26
522.93,0.11,0.11,-0.16,-0.16,0.16,0.06,0.27,0.27,0.27,0.27
528.16,0.08,0.08,-0.20,-0.20,0.20,0.10,0.28,0.28,0.28,0.28
533.44,0.05,0.05,-0.24,-0.24,0.25,0.13,0.30,0.30,0.29,0.29
