frequency,raw
20.00,2.87
20.20,2.85
20.40,2.85
20.61,2.84
20.81,2.81
21.02,2.79
21.23,2.76
21.44,2.76
21.66,2.72
21.87,2.70
22.09,2.67
22.31,2.64
22.54,2.60
22.76,2.55
22.99,2.49
23.22,2.43
23.45,2.34
23.69,2.28
23.92,2.21
24.16,2.11
24.40,2.05
24.65,1.94
24.89,1.83
25.14,1.74
25.39,1.61
25.65,1.48
25.91,1.32
26.16,1.15
26.43,0.99
26.69,0.85
26.96,0.70
27.23,0.60
27.50,0.56
27.77,0.64
28.05,0.77
28.33,0.99
28.62,1.22
28.90,1.49
29.19,1.74
29.48,1.97
29.78,2.14
30.08,2.23
30.38,2.14
30.68,1.99
30.99,1.77
31.30,1.47
31.61,1.14
31.93,0.83
32.24,0.53
32.57,0.29
32.89,0.13
33.22,0.08
33.55,0.21
33.89,0.42
34.23,0.67
34.57,0.99
34.92,1.36
35.27,1.71
35.62,2.01
35.97,2.27
36.33,2.49
36.70,2.61
37.06,2.70
37.43,2.72
37.81,2.66
38.19,2.55
38.57,2.40
38.95,2.18
39.34,1.95
39.74,1.64
40.14,1.34
40.54,0.99
40.94,0.64
41.35,0.34
41.76,0.07
42.18,-0.18
42.60,-0.35
43.03,-0.46
43.46,-0.50
43.90,-0.42
44.33,-0.30
44.78,-0.09
45.23,0.13
45.68,0.34
46.13,0.56
46.60,0.75
47.06,0.88
47.53,0.97
48.01,0.99
48.49,0.94
48.97,0.88
49.46,0.82
49.96,0.81
50.46,0.81
50.96,0.86
51.47,0.93
51.99,1.03
52.51,1.09
53.03,1.17
53.56,1.18
54.10,1.11
54.64,1.05
55.18,0.95
55.74,0.89
56.29,0.85
56.86,0.87
57.42,0.99
58.00,1.13
58.58,1.36
59.16,1.60
59.76,1.90
60.35,2.24
60.96,2.56
61.57,2.89
62.18,3.22
62.80,3.52
63.43,3.79
64.07,4.06
64.71,4.29
65.35,4.52
66.01,4.71
66.67,4.86
67.33,5.02
68.01,5.16
68.69,5.24
69.37,5.34
70.07,5.39
70.77,5.45
71.48,5.50
72.19,5.51
72.91,5.51
73.64,5.51
74.38,5.51
75.12,5.46
75.87,5.44
76.63,5.39
77.40,5.37
78.17,5.33
78.95,5.30
79.74,5.27
80.54,5.21
81.35,5.18
82.16,5.13
82.98,5.08
83.81,5.02
84.65,4.97
85.50,4.91
86.35,4.86
87.22,4.78
88.09,4.69
88.97,4.62
89.86,4.52
90.76,4.41
91.66,4.32
92.58,4.20
93.51,4.06
94.44,3.95
95.39,3.84
96.34,3.73
97.30,3.60
98.28,3.47
99.26,3.36
100.25,3.25
101.25,3.16
102.27,3.06
103.29,2.95
104.32,2.84
105.37,2.71
106.42,2.60
107.48,2.49
108.56,2.36
109.64,2.20
110.74,2.09
111.85,1.94
112.97,1.80
114.10,1.65
115.24,1.50
116.39,1.36
117.55,1.20
118.73,1.06
119.92,0.92
121.12,0.76
122.33,0.61
123.55,0.45
124.79,0.31
126.03,0.17
127.29,0.01
128.57,-0.13
129.85,-0.27
131.15,-0.41
132.46,-0.56
133.79,-0.71
135.12,-0.83
136.48,-0.98
137.84,-1.11
139.22,-1.25
140.61,-1.37
142.02,-1.51
143.44,-1.62
144.87,-1.75
146.32,-1.86
147.78,-1.95
149.26,-2.05
150.75,-2.16
152.26,-2.22
153.78,-2.33
155.32,-2.42
156.88,-2.50
158.44,-2.58
160.03,-2.66
161.63,-2.73
163.24,-2.80
164.88,-2.87
166.53,-2.94
168.19,-2.98
169.87,-3.03
171.57,-3.06
173.29,-3.10
175.02,-3.15
176.77,-3.16
178.54,-3.20
180.32,-3.22
182.13,-3.24
183.95,-3.24
185.79,-3.24
187.65,-3.27
189.52,-3.29
191.42,-3.29
193.33,-3.29
195.27,-3.27
197.22,-3.24
199.19,-3.24
201.18,-3.24
203.19,-3.24
205.23,-3.24
207.28,-3.20
209.35,-3.20
211.44,-3.20
213.56,-3.15
215.69,-3.15
217.85,-3.15
220.03,-3.10
222.23,-3.10
224.45,-3.10
226.70,-3.06
228.96,-3.06
231.25,-3.06
233.57,-3.04
235.90,-3.01
238.26,-3.01
240.64,-3.01
243.05,-3.01
245.48,-3.01
247.93,-3.01
250.41,-3.01
252.92,-2.98
255.45,-2.96
258.00,-2.96
260.58,-2.96
263.19,-2.96
265.82,-2.96
268.48,-2.96
271.16,-2.96
273.87,-2.96
276.61,-3.01
279.38,-3.01
282.17,-3.03
284.99,-3.06
287.84,-3.12
290.72,-3.15
293.63,-3.18
296.57,-3.23
299.53,-3.24
302.53,-3.29
305.55,-3.29
308.61,-3.29
311.69,-3.29
314.81,-3.27
317.96,-3.20
321.14,-3.14
324.35,-3.04
327.59,-2.97
330.87,-2.90
334.18,-2.82
337.52,-2.78
340.90,-2.75
344.30,-2.73
347.75,-2.78
351.23,-2.78
354.74,-2.79
358.28,-2.82
361.87,-2.82
365.49,-2.87
369.14,-2.87
372.83,-2.92
376.56,-2.92
380.33,-2.94
384.13,-2.96
387.97,-2.96
391.85,-3.01
395.77,-3.02
399.73,-3.06
403.72,-3.06
407.76,-3.10
411.84,-3.10
415.96,-3.15
420.12,-3.16
424.32,-3.20
428.56,-3.20
432.85,-3.24
437.18,-3.26
441.55,-3.29
445.96,-3.30
450.42,-3.34
454.93,-3.34
459.48,-3.38
464.07,-3.38
468.71,-3.38
473.40,-3.43
478.13,-3.43
482.91,-3.43
487.74,-3.43
492.62,-3.47
497.55,-3.48
502.52,-3.48
507.55,-3.48
512.62,-3.48
517.75,-3.49
522.93,-3.52
528.16,-3.52
533.44,-3.54
538.77,-3.57
544.16,-3.57
549.60,-3.57
555.10,-3.57
560.65,-3.54
566.25,-3.46
571.92,-3.33
577.64,-3.17
583.41,-2.97
589.25,-2.73
595.14,-2.49
601.09,-2.23
607.10,-1.96
613.17,-1.73
619.30,-1.51
625.50,-1.31
631.75,-1.16
638.07,-0.99
644.45,-0.85
650.89,-0.72
657.40,-0.58
663.98,-0.46
670.62,-0.31
677.32,-0.19
684.10,-0.04
690.94,0.12
697.85,0.26
704.83,0.40
711.87,0.56
718.99,0.73
726.18,0.88
733.44,1.03
740.78,1.19
748.19,1.33
755.67,1.46
763.23,1.60
770.86,1.70
778.57,1.81
786.35,1.90
794.22,1.99
802.16,2.05
810.18,2.10
818.28,2.15
826.46,2.16
834.73,2.16
843.08,2.16
851.51,2.11
860.02,2.06
868.62,1.98
877.31,1.92
886.08,1.80
894.94,1.68
903.89,1.57
912.93,1.44
922.06,1.31
931.28,1.17
940.59,1.00
950.00,0.85
959.50,0.68
969.09,0.52
978.78,0.35
988.57,0.19
998.46,0.03
1008.44,-0.14
1018.53,-0.27
1028.71,-0.40
1039.00,-0.53
1049.39,-0.62
1059.88,-0.67
1070.48,-0.70
1081.19,-0.68
1092.00,-0.66
1102.92,-0.59
1113.95,-0.52
1125.09,-0.46
1136.34,-0.41
1147.70,-0.40
1159.18,-0.44
1170.77,-0.52
1182.48,-0.65
1194.30,-0.79
1206.25,-0.96
1218.31,-1.15
1230.49,-1.34
1242.80,-1.51
1255.22,-1.69
1267.78,-1.84
1280.45,-1.98
1293.26,-2.11
1306.19,-2.22
1319.25,-2.33
1332.45,-2.42
1345.77,-2.53
1359.23,-2.59
1372.82,-2.69
1386.55,-2.77
1400.41,-2.84
1414.42,-2.89
1428.56,-2.95
1442.85,-3.01
1457.28,-3.04
1471.85,-3.06
1486.57,-3.08
1501.43,-3.06
1516.45,-3.06
1531.61,-3.01
1546.93,-2.98
1562.40,-2.94
1578.02,-2.89
1593.80,-2.84
1609.74,-2.76
1625.84,-2.69
1642.10,-2.59
1658.52,-2.49
1675.10,-2.36
1691.85,-2.22
1708.77,-2.06
1725.86,-1.90
1743.12,-1.73
1760.55,-1.54
1778.15,-1.34
1795.94,-1.17
1813.90,-1.00
1832.03,-0.82
1850.36,-0.64
1868.86,-0.48
1887.55,-0.31
1906.42,-0.10
1925.49,0.11
1944.74,0.32
1964.19,0.60
1983.83,0.86
2003.67,1.15
2023.71,1.48
2043.94,1.78
2064.38,2.13
2085.03,2.49
2105.88,2.83
2126.94,3.20
2148.20,3.57
2169.69,3.96
2191.38,4.35
2213.30,4.72
2235.43,5.11
2257.78,5.49
2280.36,5.87
2303.17,6.24
2326.20,6.63
2349.46,6.99
2372.95,7.35
2396.68,7.72
2420.65,8.07
2444.86,8.40
2469.31,8.77
2494.00,9.10
2518.94,9.40
2544.13,9.73
2569.57,10.03
2595.27,10.33
2621.22,10.61
2647.43,10.86
2673.90,11.11
2700.64,11.31
2727.65,11.52
2754.93,11.70
2782.48,11.84
2810.30,11.98
2838.40,12.12
2866.79,12.24
2895.46,12.35
2924.41,12.48
2953.65,12.64
2983.19,12.83
3013.02,13.05
3043.15,13.32
3073.58,13.61
3104.32,13.92
3135.36,14.25
3166.72,14.54
3198.38,14.81
3230.37,15.01
3262.67,15.17
3295.30,15.23
3328.25,15.21
3361.53,15.10
3395.15,14.95
3429.10,14.74
3463.39,14.50
3498.03,14.24
3533.01,13.99
3568.34,13.74
3604.02,13.49
3640.06,13.23
3676.46,12.96
3713.22,12.68
3750.36,12.38
3787.86,12.06
3825.74,11.71
3864.00,11.33
3902.64,10.94
3941.66,10.53
3981.08,10.14
4020.89,9.73
4061.10,9.35
4101.71,8.96
4142.73,8.63
4184.15,8.33
4226.00,8.10
4268.26,7.91
4310.94,7.77
4354.05,7.75
4397.59,7.79
4441.56,7.85
4485.98,7.91
4530.84,7.96
4576.15,7.95
4621.91,7.85
4668.13,7.68
4714.81,7.50
4761.96,7.28
4809.58,7.03
4857.67,6.80
4906.25,6.57
4955.31,6.37
5004.87,6.19
5054.91,6.05
5105.46,5.93
5156.52,5.86
5208.08,5.79
5260.16,5.79
5312.77,5.85
5365.89,5.91
5419.55,6.00
5473.75,6.08
5528.49,6.19
5583.77,6.30
5639.61,6.39
5696.00,6.47
5752.96,6.49
5810.49,6.47
5868.60,6.38
5927.28,6.24
5986.56,6.03
6046.42,5.81
6106.89,5.54
6167.96,5.20
6229.64,4.82
6291.93,4.43
6354.85,4.01
6418.40,3.56
6482.58,3.10
6547.41,2.62
6612.88,2.11
6679.01,1.65
6745.80,1.22
6813.26,0.84
6881.39,0.55
6950.21,0.32
7019.71,0.20
7089.91,0.17
7160.81,0.24
7232.41,0.34
7304.74,0.49
7377.79,0.66
7451.56,0.85
7526.08,1.06
7601.34,1.31
7677.35,1.57
7754.13,1.86
7831.67,2.15
7909.98,2.46
7989.08,2.74
8068.98,3.01
8149.67,3.20
8231.16,3.35
8313.47,3.37
8396.61,3.16
8480.57,2.81
8565.38,2.33
8651.03,1.64
8737.54,0.79
8824.92,-0.16
8913.17,-1.22
9002.30,-2.27
9092.32,-3.26
9183.25,-4.11
9275.08,-4.81
9367.83,-5.27
9461.51,-5.55
9556.12,-5.45
9651.68,-5.11
9748.20,-4.58
9845.68,-3.89
9944.14,-3.11
10043.58,-2.27
10144.02,-1.45
10245.46,-0.68
10347.91,-0.09
10451.39,0.36
10555.91,0.60
10661.46,0.53
10768.08,0.27
10875.76,-0.08
10984.52,-0.55
11094.36,-1.06
11205.31,-1.52
11317.36,-1.87
11430.53,-2.14
11544.84,-2.17
11660.29,-1.91
11776.89,-1.53
11894.66,-1.00
12013.60,-0.38
12133.74,0.24
12255.08,0.86
12377.63,1.39
12501.41,1.77
12626.42,2.02
12752.68,2.09
12880.21,1.99
13009.01,1.85
13139.10,1.70
13270.49,1.52
13403.20,1.34
13537.23,1.20
13672.60,1.03
13809.33,0.82
13947.42,0.54
14086.90,0.09
14227.77,-0.50
14370.04,-1.37
14513.74,-2.41
14658.88,-3.64
14805.47,-4.92
14953.52,-6.18
15103.06,-7.26
15254.09,-8.12
15406.63,-8.69
15560.70,-9.01
15716.30,-8.86
15873.47,-8.63
16032.20,-8.38
16192.52,-8.17
16354.45,-8.23
16517.99,-8.50
16683.17,-8.90
16850.01,-9.37
17018.51,-9.88
17188.69,-10.32
17360.58,-10.66
17534.18,-10.89
17709.53,-10.90
17886.62,-10.75
18065.49,-10.52
18246.14,-10.30
18428.60,-10.04
18612.89,-9.80
18799.02,-9.58
18987.01,-9.40
19176.88,-9.33
19368.65,-9.38
19562.33,-9.39
19757.96,-9.40
19955.54,-9.44
