frequency,raw
20.00,-3.08
20.20,-3.07
20.40,-3.04
20.61,-2.98
20.81,-2.95
21.02,-2.90
21.23,-2.87
21.44,-2.81
21.66,-2.78
21.87,-2.75
22.09,-2.72
22.31,-2.67
22.54,-2.63
22.76,-2.60
22.99,-2.57
23.22,-2.53
23.45,-2.51
23.69,-2.46
23.92,-2.42
24.16,-2.39
24.40,-2.36
24.65,-2.32
24.89,-2.28
25.14,-2.25
25.39,-2.21
25.65,-2.19
25.91,-2.15
26.16,-2.12
26.43,-2.09
26.69,-2.06
26.96,-2.03
27.23,-2.00
27.50,-1.95
27.77,-1.91
28.05,-1.88
28.33,-1.84
28.62,-1.79
28.90,-1.76
29.19,-1.71
29.48,-1.68
29.78,-1.62
30.08,-1.59
30.38,-1.54
30.68,-1.51
30.99,-1.48
31.30,-1.44
31.61,-1.41
31.93,-1.38
32.24,-1.35
32.57,-1.32
32.89,-1.30
33.22,-1.26
33.55,-1.25
33.89,-1.21
34.23,-1.17
34.57,-1.16
34.92,-1.11
35.27,-1.10
35.62,-1.07
35.97,-1.02
36.33,-1.02
36.70,-0.97
37.06,-0.97
37.43,-0.93
37.81,-0.93
38.19,-0.89
38.57,-0.88
38.95,-0.88
39.34,-0.83
39.74,-0.83
40.14,-0.83
40.54,-0.83
40.94,-0.79
41.35,-0.79
41.76,-0.79
42.18,-0.79
42.60,-0.78
43.03,-0.74
43.46,-0.74
43.90,-0.74
44.33,-0.74
44.78,-0.74
45.23,-0.70
45.68,-0.70
46.13,-0.70
46.60,-0.70
47.06,-0.70
47.53,-0.68
48.01,-0.65
48.49,-0.65
48.97,-0.65
49.46,-0.65
49.96,-0.65
50.46,-0.65
50.96,-0.63
51.47,-0.60
51.99,-0.60
52.51,-0.60
53.03,-0.60
53.56,-0.60
54.10,-0.59
54.64,-0.56
55.18,-0.56
55.74,-0.56
56.29,-0.56
56.86,-0.51
57.42,-0.51
58.00,-0.51
58.58,-0.46
59.16,-0.46
59.76,-0.46
60.35,-0.42
60.96,-0.42
61.57,-0.38
62.18,-0.37
62.80,-0.36
63.43,-0.32
64.07,-0.32
64.71,-0.28
65.35,-0.28
66.01,-0.23
66.67,-0.23
67.33,-0.19
68.01,-0.18
68.69,-0.14
69.37,-0.14
70.07,-0.09
70.77,-0.09
71.48,-0.05
72.19,-0.04
72.91,-0.01
73.64,0.00
74.38,0.05
75.12,0.05
75.87,0.09
76.63,0.10
77.40,0.13
78.17,0.14
78.95,0.14
79.74,0.19
80.54,0.19
81.35,0.24
82.16,0.24
82.98,0.24
83.81,0.24
84.65,0.28
85.50,0.28
86.35,0.28
87.22,0.30
88.09,0.33
88.97,0.33
89.86,0.33
90.76,0.38
91.66,0.38
92.58,0.38
93.51,0.42
94.44,0.42
95.39,0.44
96.34,0.47
97.30,0.47
98.28,0.49
99.26,0.52
100.25,0.52
101.25,0.53
102.27,0.56
103.29,0.56
104.32,0.56
105.37,0.56
106.42,0.61
107.48,0.61
108.56,0.61
109.64,0.61
110.74,0.61
111.85,0.63
112.97,0.65
114.10,0.65
115.24,0.65
116.39,0.65
117.55,0.65
118.73,0.68
119.92,0.70
121.12,0.70
122.33,0.70
123.55,0.70
124.79,0.70
126.03,0.74
127.29,0.75
128.57,0.75
129.85,0.75
131.15,0.75
132.46,0.75
133.79,0.77
135.12,0.79
136.48,0.79
137.84,0.79
139.22,0.79
140.61,0.79
142.02,0.79
143.44,0.79
144.87,0.79
146.32,0.82
147.78,0.82
149.26,0.84
150.75,0.84
152.26,0.84
153.78,0.84
155.32,0.84
156.88,0.84
158.44,0.84
160.03,0.84
161.63,0.84
163.24,0.84
164.88,0.84
166.53,0.84
168.19,0.84
169.87,0.84
171.57,0.84
173.29,0.84
175.02,0.84
176.77,0.84
178.54,0.84
180.32,0.84
182.13,0.84
183.95,0.84
185.79,0.84
187.65,0.84
189.52,0.84
191.42,0.82
193.33,0.82
195.27,0.79
197.22,0.79
199.19,0.79
201.18,0.79
203.19,0.79
205.23,0.79
207.28,0.79
209.35,0.79
211.44,0.79
213.56,0.79
215.69,0.77
217.85,0.77
220.03,0.75
222.23,0.75
224.45,0.75
226.70,0.75
228.96,0.75
231.25,0.75
233.57,0.75
235.90,0.75
238.26,0.74
240.64,0.71
243.05,0.70
245.48,0.70
247.93,0.70
250.41,0.70
252.92,0.70
255.45,0.70
258.00,0.70
260.58,0.67
263.19,0.65
265.82,0.65
268.48,0.65
271.16,0.65
273.87,0.65
276.61,0.65
279.38,0.62
282.17,0.61
284.99,0.61
287.84,0.61
290.72,0.61
293.63,0.61
296.57,0.59
299.53,0.56
302.53,0.56
305.55,0.56
308.61,0.56
311.69,0.56
314.81,0.56
317.96,0.54
321.14,0.52
324.35,0.52
327.59,0.52
330.87,0.52
334.18,0.52
337.52,0.52
340.90,0.49
344.30,0.47
347.75,0.47
351.23,0.47
354.74,0.47
358.28,0.47
361.87,0.46
365.49,0.42
369.14,0.42
372.83,0.42
376.56,0.42
380.33,0.42
384.13,0.42
387.97,0.38
391.85,0.38
395.77,0.38
399.73,0.38
403.72,0.38
407.76,0.38
411.84,0.38
415.96,0.35
420.12,0.33
424.32,0.33
428.56,0.33
432.85,0.33
437.18,0.33
441.55,0.33
445.96,0.33
450.42,0.33
454.93,0.31
459.48,0.28
464.07,0.28
468.71,0.28
473.40,0.28
478.13,0.28
482.91,0.28
487.74,0.28
492.62,0.28
497.55,0.28
502.52,0.26
507.55,0.24
512.62,0.24
517.75,0.24
522.93,0.24
528.16,0.24
533.44,0.24
538.77,0.24
544.16,0.23
549.60,0.19
555.10,0.19
560.65,0.19
566.25,0.19
571.92,0.19
577.64,0.19
583.41,0.19
589.25,0.15
595.14,0.14
601.09,0.14
607.10,0.14
613.17,0.14
619.30,0.14
625.50,0.13
631.75,0.10
638.07,0.10
644.45,0.10
650.89,0.10
657.40,0.10
663.98,0.10
670.62,0.10
677.32,0.10
684.10,0.10
690.94,0.10
697.85,0.10
704.83,0.10
711.87,0.10
718.99,0.10
726.18,0.10
733.44,0.10
740.78,0.10
748.19,0.10
755.67,0.10
763.23,0.10
770.86,0.10
778.57,0.10
786.35,0.10
794.22,0.10
802.16,0.05
810.18,0.05
818.28,0.05
826.46,0.05
834.73,0.05
843.08,0.05
851.51,0.05
860.02,0.05
868.62,0.05
877.31,0.05
886.08,0.05
894.94,0.05
903.89,0.05
912.93,0.05
922.06,0.05
931.28,0.05
940.59,0.05
950.00,0.05
959.50,0.05
969.09,0.05
978.78,0.03
988.57,0.00
998.46,0.00
1008.44,-0.02
1018.53,-0.04
1028.71,-0.08
1039.00,-0.09
1049.39,-0.14
1059.88,-0.16
1070.48,-0.18
1081.19,-0.23
1092.00,-0.27
1102.92,-0.30
1113.95,-0.35
1125.09,-0.38
1136.34,-0.42
1147.70,-0.46
1159.18,-0.49
1170.77,-0.53
1182.48,-0.56
1194.30,-0.59
1206.25,-0.62
1218.31,-0.65
1230.49,-0.70
1242.80,-0.72
1255.22,-0.75
1267.78,-0.79
1280.45,-0.81
1293.26,-0.84
1306.19,-0.88
1319.25,-0.88
1332.45,-0.93
1345.77,-0.93
1359.23,-0.97
1372.82,-0.97
1386.55,-0.97
1400.41,-1.02
1414.42,-1.02
1428.56,-1.02
1442.85,-1.02
1457.28,-1.02
1471.85,-1.02
1486.57,-1.02
1501.43,-0.97
1516.45,-0.97
1531.61,-0.95
1546.93,-0.92
1562.40,-0.88
1578.02,-0.84
1593.80,-0.80
1609.74,-0.74
1625.84,-0.67
1642.10,-0.63
1658.52,-0.56
1675.10,-0.49
1691.85,-0.43
1708.77,-0.34
1725.86,-0.28
1743.12,-0.19
1760.55,-0.11
1778.15,-0.04
1795.94,0.06
1813.90,0.13
1832.03,0.21
1850.36,0.30
1868.86,0.41
1887.55,0.47
1906.42,0.58
1925.49,0.69
1944.74,0.77
1964.19,0.88
1983.83,0.99
2003.67,1.10
2023.71,1.21
2043.94,1.34
2064.38,1.47
2085.03,1.60
2105.88,1.73
2126.94,1.87
2148.20,2.01
2169.69,2.13
2191.38,2.28
2213.30,2.42
2235.43,2.56
2257.78,2.70
2280.36,2.86
2303.17,3.00
2326.20,3.12
2349.46,3.28
2372.95,3.43
2396.68,3.57
2420.65,3.72
2444.86,3.88
2469.31,4.03
2494.00,4.20
2518.94,4.36
2544.13,4.55
2569.57,4.71
2595.27,4.87
2621.22,5.06
2647.43,5.21
2673.90,5.37
2700.64,5.52
2727.65,5.66
2754.93,5.81
2782.48,5.94
2810.30,6.04
2838.40,6.14
2866.79,6.22
2895.46,6.27
2924.41,6.33
2953.65,6.33
2983.19,6.33
3013.02,6.33
3043.15,6.31
3073.58,6.23
3104.32,6.16
3135.36,6.05
3166.72,5.94
3198.38,5.79
3230.37,5.65
3262.67,5.47
3295.30,5.29
3328.25,5.09
3361.53,4.87
3395.15,4.68
3429.10,4.46
3463.39,4.24
3498.03,4.03
3533.01,3.81
3568.34,3.60
3604.02,3.40
3640.06,3.21
3676.46,3.07
3713.22,2.92
3750.36,2.81
3787.86,2.71
3825.74,2.66
3864.00,2.66
3902.64,2.69
3941.66,2.77
3981.08,2.92
4020.89,3.10
4061.10,3.31
4101.71,3.58
4142.73,3.90
4184.15,4.26
4226.00,4.64
4268.26,5.05
4310.94,5.49
4354.05,5.94
4397.59,6.38
4441.56,6.84
4485.98,7.25
4530.84,7.65
4576.15,8.01
4621.91,8.29
4668.13,8.53
4714.81,8.70
4761.96,8.83
4809.58,8.84
4857.67,8.78
4906.25,8.60
4955.31,8.39
5004.87,8.12
5054.91,7.80
5105.46,7.42
5156.52,7.03
5208.08,6.60
5260.16,6.13
5312.77,5.66
5365.89,5.15
5419.55,4.63
5473.75,4.11
5528.49,3.54
5583.77,2.98
5639.61,2.45
5696.00,1.96
5752.96,1.48
5810.49,1.09
5868.60,0.77
5927.28,0.52
5986.56,0.36
6046.42,0.25
6106.89,0.25
6167.96,0.35
6229.64,0.49
6291.93,0.71
6354.85,0.95
6418.40,1.22
6482.58,1.50
6547.41,1.76
6612.88,1.98
6679.01,2.19
6745.80,2.31
6813.26,2.43
6881.39,2.47
6950.21,2.49
7019.71,2.46
7089.91,2.42
7160.81,2.33
7232.41,2.25
7304.74,2.14
7377.79,2.01
7451.56,1.88
7526.08,1.71
7601.34,1.54
7677.35,1.37
7754.13,1.19
7831.67,1.01
7909.98,0.81
7989.08,0.54
8068.98,0.24
8149.67,-0.11
8231.16,-0.52
8313.47,-0.94
8396.61,-1.41
8480.57,-1.87
8565.38,-2.36
8651.03,-2.83
8737.54,-3.30
8824.92,-3.74
8913.17,-4.17
9002.30,-4.56
9092.32,-4.90
9183.25,-5.18
9275.08,-5.41
9367.83,-5.58
9461.51,-5.65
9556.12,-5.54
9651.68,-5.35
9748.20,-5.07
9845.68,-4.75
9944.14,-4.37
10043.58,-3.99
10144.02,-3.61
10245.46,-3.30
10347.91,-3.04
10451.39,-2.84
10555.91,-2.79
10661.46,-3.02
10768.08,-3.34
10875.76,-3.75
10984.52,-4.25
11094.36,-4.73
11205.31,-5.17
11317.36,-5.45
11430.53,-5.58
11544.84,-5.42
11660.29,-5.07
11776.89,-4.56
11894.66,-3.92
12013.60,-3.15
12133.74,-2.33
12255.08,-1.52
12377.63,-0.82
12501.41,-0.22
12626.42,0.19
12752.68,0.43
12880.21,0.48
13009.01,0.33
13139.10,0.15
13270.49,-0.06
13403.20,-0.26
13537.23,-0.43
13672.60,-0.57
13809.33,-0.65
13947.42,-0.61
14086.90,-0.54
14227.77,-0.46
14370.04,-0.41
14513.74,-0.39
14658.88,-0.49
14805.47,-0.64
14953.52,-0.79
15103.06,-1.01
15254.09,-1.19
15406.63,-1.39
15560.70,-1.59
15716.30,-1.77
15873.47,-1.98
16032.20,-2.15
16192.52,-2.34
16354.45,-2.58
16517.99,-2.83
16683.17,-3.10
16850.01,-3.41
17018.51,-3.74
17188.69,-4.15
17360.58,-4.59
17534.18,-5.05
17709.53,-5.57
17886.62,-6.07
18065.49,-6.59
18246.14,-7.13
18428.60,-7.68
18612.89,-8.17
18799.02,-8.60
18987.01,-9.00
19176.88,-9.27
19368.65,-9.53
19562.33,-9.82
19757.96,-10.14
19955.54,-10.32
