frequency,raw
20.00,-7.99
20.20,-7.93
20.40,-7.88
20.61,-7.78
20.81,-7.67
21.02,-7.59
21.23,-7.50
21.44,-7.39
21.66,-7.29
21.87,-7.22
22.09,-7.12
22.31,-7.01
22.54,-6.92
22.76,-6.84
22.99,-6.73
23.22,-6.63
23.45,-6.53
23.69,-6.45
23.92,-6.34
24.16,-6.25
24.40,-6.14
24.65,-6.06
24.89,-5.95
25.14,-5.85
25.39,-5.76
25.65,-5.65
25.91,-5.56
26.16,-5.45
26.43,-5.37
26.69,-5.26
26.96,-5.17
27.23,-5.06
27.50,-4.96
27.77,-4.87
28.05,-4.76
28.33,-4.68
28.62,-4.57
28.90,-4.46
29.19,-4.37
29.48,-4.26
29.78,-4.16
30.08,-4.07
30.38,-3.96
30.68,-3.88
30.99,-3.77
31.30,-3.68
31.61,-3.57
31.93,-3.46
32.24,-3.37
32.57,-3.27
32.89,-3.19
33.22,-3.08
33.55,-2.99
33.89,-2.88
34.23,-2.80
34.57,-2.69
34.92,-2.59
35.27,-2.49
35.62,-2.41
35.97,-2.30
36.33,-2.23
36.70,-2.13
37.06,-2.02
37.43,-1.96
37.81,-1.85
38.19,-1.78
38.57,-1.68
38.95,-1.58
39.34,-1.51
39.74,-1.40
40.14,-1.34
40.54,-1.24
40.94,-1.17
41.35,-1.08
41.76,-1.01
42.18,-0.93
42.60,-0.85
43.03,-0.77
43.46,-0.70
43.90,-0.64
44.33,-0.56
44.78,-0.49
45.23,-0.43
45.68,-0.37
46.13,-0.30
46.60,-0.25
47.06,-0.19
47.53,-0.14
48.01,-0.11
48.49,-0.05
48.97,-0.02
49.46,0.01
49.96,0.05
50.46,0.05
50.96,0.08
51.47,0.10
51.99,0.10
52.51,0.07
53.03,0.05
53.56,0.05
54.10,0.05
54.64,0.02
55.18,0.01
55.74,0.01
56.29,0.05
56.86,0.05
57.42,0.08
58.00,0.12
58.58,0.19
59.16,0.27
59.76,0.36
60.35,0.49
60.96,0.60
61.57,0.73
62.18,0.86
62.80,1.00
63.43,1.14
64.07,1.26
64.71,1.39
65.35,1.50
66.01,1.61
66.67,1.69
67.33,1.80
68.01,1.87
68.69,1.97
69.37,2.04
70.07,2.10
70.77,2.18
71.48,2.25
72.19,2.31
72.91,2.36
73.64,2.42
74.38,2.47
75.12,2.51
75.87,2.56
76.63,2.61
77.40,2.64
78.17,2.67
78.95,2.71
79.74,2.75
80.54,2.77
81.35,2.80
82.16,2.83
82.98,2.85
83.81,2.89
84.65,2.89
85.50,2.89
86.35,2.94
87.22,2.94
88.09,2.94
88.97,2.94
89.86,2.94
90.76,2.94
91.66,2.94
92.58,2.94
93.51,2.96
94.44,2.99
95.39,2.99
96.34,2.99
97.30,2.99
98.28,2.99
99.26,2.99
100.25,2.99
101.25,2.99
102.27,2.99
103.29,2.99
104.32,2.99
105.37,2.97
106.42,2.94
107.48,2.94
108.56,2.94
109.64,2.94
110.74,2.94
111.85,2.94
112.97,2.89
114.10,2.89
115.24,2.89
116.39,2.89
117.55,2.85
118.73,2.85
119.92,2.85
121.12,2.80
122.33,2.80
123.55,2.80
124.79,2.75
126.03,2.75
127.29,2.71
128.57,2.71
129.85,2.67
131.15,2.66
132.46,2.63
133.79,2.61
135.12,2.57
136.48,2.56
137.84,2.52
139.22,2.47
140.61,2.44
142.02,2.41
143.44,2.38
144.87,2.35
146.32,2.29
147.78,2.26
149.26,2.23
150.75,2.18
152.26,2.14
153.78,2.11
155.32,2.06
156.88,2.03
158.44,2.00
160.03,1.94
161.63,1.91
163.24,1.88
164.88,1.83
166.53,1.80
168.19,1.76
169.87,1.71
171.57,1.68
173.29,1.64
175.02,1.59
176.77,1.56
178.54,1.51
180.32,1.47
182.13,1.42
183.95,1.37
185.79,1.33
187.65,1.28
189.52,1.22
191.42,1.15
193.33,1.10
195.27,1.05
197.22,1.01
199.19,0.95
201.18,0.89
203.19,0.83
205.23,0.77
207.28,0.73
209.35,0.68
211.44,0.63
213.56,0.56
215.69,0.50
217.85,0.45
220.03,0.40
222.23,0.35
224.45,0.30
226.70,0.22
228.96,0.17
231.25,0.09
233.57,0.03
235.90,-0.04
238.26,-0.12
240.64,-0.18
243.05,-0.25
245.48,-0.33
247.93,-0.40
250.41,-0.48
252.92,-0.54
255.45,-0.60
258.00,-0.64
260.58,-0.69
263.19,-0.73
265.82,-0.74
268.48,-0.79
271.16,-0.79
273.87,-0.79
276.61,-0.80
279.38,-0.83
282.17,-0.83
284.99,-0.83
287.84,-0.83
290.72,-0.83
293.63,-0.83
296.57,-0.80
299.53,-0.79
302.53,-0.74
305.55,-0.73
308.61,-0.69
311.69,-0.66
314.81,-0.65
317.96,-0.65
321.14,-0.62
324.35,-0.64
327.59,-0.65
330.87,-0.65
334.18,-0.67
337.52,-0.69
340.90,-0.72
344.30,-0.75
347.75,-0.79
351.23,-0.82
354.74,-0.85
358.28,-0.88
361.87,-0.93
365.49,-0.96
369.14,-0.99
372.83,-1.03
376.56,-1.06
380.33,-1.09
384.13,-1.12
387.97,-1.16
391.85,-1.20
395.77,-1.24
399.73,-1.27
403.72,-1.30
407.76,-1.33
411.84,-1.36
415.96,-1.39
420.12,-1.44
424.32,-1.46
428.56,-1.48
432.85,-1.53
437.18,-1.55
441.55,-1.58
445.96,-1.58
450.42,-1.62
454.93,-1.62
459.48,-1.64
464.07,-1.67
468.71,-1.69
473.40,-1.72
478.13,-1.72
482.91,-1.76
487.74,-1.76
492.62,-1.76
497.55,-1.76
502.52,-1.72
507.55,-1.70
512.62,-1.67
517.75,-1.62
522.93,-1.58
528.16,-1.55
533.44,-1.53
538.77,-1.51
544.16,-1.48
549.60,-1.48
555.10,-1.45
560.65,-1.44
566.25,-1.44
571.92,-1.44
577.64,-1.46
583.41,-1.48
589.25,-1.48
595.14,-1.49
601.09,-1.53
607.10,-1.53
613.17,-1.58
619.30,-1.58
625.50,-1.58
631.75,-1.62
638.07,-1.62
644.45,-1.62
650.89,-1.62
657.40,-1.62
663.98,-1.59
670.62,-1.58
677.32,-1.57
684.10,-1.53
690.94,-1.50
697.85,-1.46
704.83,-1.42
711.87,-1.37
718.99,-1.33
726.18,-1.28
733.44,-1.23
740.78,-1.18
748.19,-1.13
755.67,-1.08
763.23,-1.00
770.86,-0.95
778.57,-0.90
786.35,-0.88
794.22,-0.88
802.16,-0.88
810.18,-0.88
818.28,-0.92
826.46,-0.93
834.73,-0.97
843.08,-0.97
851.51,-0.97
860.02,-0.96
868.62,-0.93
877.31,-0.90
886.08,-0.84
894.94,-0.81
903.89,-0.75
912.93,-0.69
922.06,-0.63
931.28,-0.57
940.59,-0.49
950.00,-0.42
959.50,-0.36
969.09,-0.27
978.78,-0.19
988.57,-0.09
998.46,-0.02
1008.44,0.09
1018.53,0.17
1028.71,0.26
1039.00,0.37
1049.39,0.46
1059.88,0.54
1070.48,0.65
1081.19,0.74
1092.00,0.82
1102.92,0.93
1113.95,1.03
1125.09,1.10
1136.34,1.21
1147.70,1.30
1159.18,1.38
1170.77,1.49
1182.48,1.59
1194.30,1.68
1206.25,1.79
1218.31,1.92
1230.49,2.06
1242.80,2.17
1255.22,2.27
1267.78,2.40
1280.45,2.52
1293.26,2.65
1306.19,2.78
1319.25,2.91
1332.45,3.04
1345.77,3.15
1359.23,3.31
1372.82,3.43
1386.55,3.57
1400.41,3.70
1414.42,3.84
1428.56,3.96
1442.85,4.10
1457.28,4.21
1471.85,4.34
1486.57,4.45
1501.43,4.56
1516.45,4.67
1531.61,4.77
1546.93,4.88
1562.40,4.97
1578.02,5.08
1593.80,5.14
1609.74,5.23
1625.84,5.29
1642.10,5.35
1658.52,5.41
1675.10,5.47
1691.85,5.52
1708.77,5.56
1725.86,5.59
1743.12,5.62
1760.55,5.64
1778.15,5.64
1795.94,5.67
1813.90,5.69
1832.03,5.69
1850.36,5.68
1868.86,5.65
1887.55,5.64
1906.42,5.64
1925.49,5.64
1944.74,5.59
1964.19,5.59
1983.83,5.55
2003.67,5.52
2023.71,5.49
2043.94,5.44
2064.38,5.38
2085.03,5.31
2105.88,5.24
2126.94,5.17
2148.20,5.07
2169.69,5.00
2191.38,4.92
2213.30,4.84
2235.43,4.79
2257.78,4.73
2280.36,4.68
2303.17,4.62
2326.20,4.59
2349.46,4.54
2372.95,4.52
2396.68,4.48
2420.65,4.48
2444.86,4.43
2469.31,4.43
2494.00,4.38
2518.94,4.38
2544.13,4.38
2569.57,4.38
2595.27,4.38
2621.22,4.41
2647.43,4.45
2673.90,4.50
2700.64,4.57
2727.65,4.63
2754.93,4.76
2782.48,4.90
2810.30,5.06
2838.40,5.26
2866.79,5.53
2895.46,5.84
2924.41,6.16
2953.65,6.51
2983.19,6.89
3013.02,7.25
3043.15,7.60
3073.58,7.92
3104.32,8.17
3135.36,8.39
3166.72,8.52
3198.38,8.64
3230.37,8.67
3262.67,8.66
3295.30,8.58
3328.25,8.45
3361.53,8.29
3395.15,8.08
3429.10,7.84
3463.39,7.59
3498.03,7.32
3533.01,7.02
3568.34,6.72
3604.02,6.39
3640.06,6.09
3676.46,5.76
3713.22,5.48
3750.36,5.16
3787.86,4.88
3825.74,4.57
3864.00,4.27
3902.64,3.97
3941.66,3.66
3981.08,3.34
4020.89,3.01
4061.10,2.69
4101.71,2.36
4142.73,2.02
4184.15,1.71
4226.00,1.43
4268.26,1.11
4310.94,0.82
4354.05,0.54
4397.59,0.23
4441.56,-0.11
4485.98,-0.46
4530.84,-0.82
4576.15,-1.20
4621.91,-1.60
4668.13,-1.99
4714.81,-2.32
4761.96,-2.62
4809.58,-2.89
4857.67,-3.12
4906.25,-3.29
4955.31,-3.44
5004.87,-3.57
5054.91,-3.63
5105.46,-3.74
5156.52,-3.83
5208.08,-3.94
5260.16,-4.07
5312.77,-4.15
5365.89,-4.25
5419.55,-4.19
5473.75,-4.03
5528.49,-3.81
5583.77,-3.50
5639.61,-3.13
5696.00,-2.80
5752.96,-2.48
5810.49,-2.22
5868.60,-2.03
5927.28,-1.96
5986.56,-2.02
6046.42,-2.04
6106.89,-2.04
6167.96,-1.98
6229.64,-1.89
6291.93,-1.76
6354.85,-1.63
6418.40,-1.52
6482.58,-1.58
6547.41,-1.78
6612.88,-2.13
6679.01,-2.58
6745.80,-3.12
6813.26,-3.74
6881.39,-4.38
6950.21,-4.93
7019.71,-5.44
7089.91,-5.81
7160.81,-6.09
7232.41,-6.24
7304.74,-6.22
7377.79,-6.07
7451.56,-5.86
7526.08,-5.59
7601.34,-5.26
7677.35,-4.91
7754.13,-4.50
7831.67,-4.06
7909.98,-3.58
7989.08,-3.08
8068.98,-2.50
8149.67,-1.92
8231.16,-1.32
8313.47,-0.73
8396.61,-0.20
8480.57,0.22
8565.38,0.54
8651.03,0.64
8737.54,0.39
8824.92,-0.03
8913.17,-0.68
9002.30,-1.51
9092.32,-2.50
9183.25,-3.59
9275.08,-4.71
9367.83,-5.81
9461.51,-6.86
9556.12,-7.74
9651.68,-8.51
9748.20,-9.06
9845.68,-9.44
9944.14,-9.65
10043.58,-9.53
10144.02,-9.24
10245.46,-8.84
10347.91,-8.31
10451.39,-7.72
10555.91,-7.11
10661.46,-6.56
10768.08,-6.10
10875.76,-5.77
10984.52,-5.56
11094.36,-5.58
11205.31,-5.79
11317.36,-6.13
11430.53,-6.53
11544.84,-6.94
11660.29,-7.31
11776.89,-7.58
11894.66,-7.65
12013.60,-7.45
12133.74,-7.10
12255.08,-6.64
12377.63,-6.18
12501.41,-5.69
12626.42,-5.32
12752.68,-5.08
12880.21,-5.12
13009.01,-5.38
13139.10,-5.80
13270.49,-6.35
13403.20,-7.04
13537.23,-7.85
13672.60,-8.76
13809.33,-9.75
13947.42,-10.79
14086.90,-11.84
14227.77,-12.87
14370.04,-13.79
14513.74,-14.58
14658.88,-15.19
14805.47,-15.61
14953.52,-15.85
15103.06,-15.79
15254.09,-15.56
15406.63,-15.23
15560.70,-14.83
15716.30,-14.40
15873.47,-14.00
16032.20,-13.57
16192.52,-13.14
16354.45,-12.66
16517.99,-12.17
16683.17,-11.67
16850.01,-11.23
17018.51,-10.88
17188.69,-10.65
17360.58,-10.62
17534.18,-10.86
17709.53,-11.30
17886.62,-11.79
18065.49,-12.34
18246.14,-12.81
18428.60,-13.19
18612.89,-13.41
18799.02,-13.47
18987.01,-13.39
19176.88,-13.28
19368.65,-13.19
19562.33,-13.10
19757.96,-13.05
19955.54,-13.00
