frequency,raw
20.00,-9.96
20.20,-9.96
20.40,-9.93
20.61,-9.89
20.81,-9.84
21.02,-9.81
21.23,-9.75
21.44,-9.70
21.66,-9.67
21.87,-9.61
22.09,-9.58
22.31,-9.55
22.54,-9.52
22.76,-9.49
22.99,-9.47
23.22,-9.44
23.45,-9.42
23.69,-9.39
23.92,-9.36
24.16,-9.33
24.40,-9.28
24.65,-9.24
24.89,-9.21
25.14,-9.17
25.39,-9.15
25.65,-9.12
25.91,-9.07
26.16,-9.06
26.43,-9.03
26.69,-8.99
26.96,-8.96
27.23,-8.93
27.50,-8.89
27.77,-8.86
28.05,-8.82
28.33,-8.79
28.62,-8.75
28.90,-8.72
29.19,-8.70
29.48,-8.66
29.78,-8.65
30.08,-8.62
30.38,-8.59
30.68,-8.56
30.99,-8.51
31.30,-8.47
31.61,-8.46
31.93,-8.42
32.24,-8.42
32.57,-8.42
32.89,-8.40
33.22,-8.37
33.55,-8.35
33.89,-8.32
34.23,-8.28
34.57,-8.28
34.92,-8.23
35.27,-8.27
35.62,-8.28
35.97,-8.29
36.33,-8.33
36.70,-8.33
37.06,-8.37
37.43,-8.37
37.81,-8.37
38.19,-8.33
38.57,-8.33
38.95,-8.37
39.34,-8.37
39.74,-8.37
40.14,-8.37
40.54,-8.40
40.94,-8.40
41.35,-8.42
41.76,-8.42
42.18,-8.44
42.60,-8.47
43.03,-8.50
43.46,-8.51
43.90,-8.54
44.33,-8.51
44.78,-8.49
45.23,-8.44
45.68,-8.37
46.13,-8.29
46.60,-8.23
47.06,-8.13
47.53,-8.05
48.01,-7.95
48.49,-7.86
48.97,-7.75
49.46,-7.64
49.96,-7.53
50.46,-7.43
50.96,-7.29
51.47,-7.18
51.99,-7.12
52.51,-7.05
53.03,-7.00
53.56,-6.98
54.10,-6.93
54.64,-6.93
55.18,-6.91
55.74,-6.88
56.29,-6.87
56.86,-6.84
57.42,-6.81
58.00,-6.78
58.58,-6.74
59.16,-6.72
59.76,-6.66
60.35,-6.63
60.96,-6.57
61.57,-6.50
62.18,-6.42
62.80,-6.31
63.43,-6.18
64.07,-6.07
64.71,-5.94
65.35,-5.82
66.01,-5.70
66.67,-5.60
67.33,-5.52
68.01,-5.46
68.69,-5.43
69.37,-5.39
70.07,-5.44
70.77,-5.46
71.48,-5.51
72.19,-5.56
72.91,-5.62
73.64,-5.69
74.38,-5.74
75.12,-5.80
75.87,-5.85
76.63,-5.91
77.40,-5.94
78.17,-5.99
78.95,-6.02
79.74,-6.05
80.54,-6.09
81.35,-6.14
82.16,-6.17
82.98,-6.19
83.81,-6.23
84.65,-6.26
85.50,-6.28
86.35,-6.33
87.22,-6.33
88.09,-6.37
88.97,-6.37
89.86,-6.39
90.76,-6.42
91.66,-6.42
92.58,-6.43
93.51,-6.47
94.44,-6.47
95.39,-6.48
96.34,-6.51
97.30,-6.51
98.28,-6.51
99.26,-6.53
100.25,-6.56
101.25,-6.56
102.27,-6.56
103.29,-6.56
104.32,-6.56
105.37,-6.52
106.42,-6.51
107.48,-6.51
108.56,-6.51
109.64,-6.51
110.74,-6.51
111.85,-6.51
112.97,-6.51
114.10,-6.51
115.24,-6.51
116.39,-6.51
117.55,-6.51
118.73,-6.51
119.92,-6.51
121.12,-6.51
122.33,-6.51
123.55,-6.51
124.79,-6.51
126.03,-6.51
127.29,-6.51
128.57,-6.51
129.85,-6.54
131.15,-6.54
132.46,-6.54
133.79,-6.54
135.12,-6.54
136.48,-6.54
137.84,-6.54
139.22,-6.54
140.61,-6.54
142.02,-6.55
143.44,-6.56
144.87,-6.56
146.32,-6.56
147.78,-6.56
149.26,-6.56
150.75,-6.56
152.26,-6.54
153.78,-6.54
155.32,-6.51
156.88,-6.51
158.44,-6.51
160.03,-6.51
161.63,-6.51
163.24,-6.52
164.88,-6.54
166.53,-6.54
168.19,-6.54
169.87,-6.54
171.57,-6.53
173.29,-6.51
175.02,-6.51
176.77,-6.51
178.54,-6.51
180.32,-6.51
182.13,-6.51
183.95,-6.51
185.79,-6.51
187.65,-6.51
189.52,-6.51
191.42,-6.51
193.33,-6.49
195.27,-6.48
197.22,-6.47
199.19,-6.47
201.18,-6.47
203.19,-6.47
205.23,-6.47
207.28,-6.47
209.35,-6.47
211.44,-6.47
213.56,-6.47
215.69,-6.47
217.85,-6.44
220.03,-6.42
222.23,-6.42
224.45,-6.42
226.70,-6.42
228.96,-6.42
231.25,-6.42
233.57,-6.42
235.90,-6.38
238.26,-6.37
240.64,-6.37
243.05,-6.37
245.48,-6.37
247.93,-6.37
250.41,-6.35
252.92,-6.33
255.45,-6.33
258.00,-6.33
260.58,-6.33
263.19,-6.33
265.82,-6.33
268.48,-6.28
271.16,-6.28
273.87,-6.28
276.61,-6.28
279.38,-6.28
282.17,-6.23
284.99,-6.23
287.84,-6.23
290.72,-6.23
293.63,-6.23
296.57,-6.20
299.53,-6.19
302.53,-6.19
305.55,-6.19
308.61,-6.14
311.69,-6.14
314.81,-6.14
317.96,-6.14
321.14,-6.09
324.35,-6.09
327.59,-6.09
330.87,-6.08
334.18,-6.05
337.52,-6.05
340.90,-6.00
344.30,-6.00
347.75,-6.00
351.23,-5.95
354.74,-5.95
358.28,-5.91
361.87,-5.91
365.49,-5.91
369.14,-5.86
372.83,-5.86
376.56,-5.85
380.33,-5.81
384.13,-5.81
387.97,-5.81
391.85,-5.81
395.77,-5.81
399.73,-5.79
403.72,-5.77
407.76,-5.77
411.84,-5.77
415.96,-5.77
420.12,-5.77
424.32,-5.77
428.56,-5.72
432.85,-5.72
437.18,-5.72
441.55,-5.67
445.96,-5.67
450.42,-5.63
454.93,-5.63
459.48,-5.58
464.07,-5.58
468.71,-5.53
473.40,-5.50
478.13,-5.49
482.91,-5.44
487.74,-5.43
492.62,-5.39
497.55,-5.35
502.52,-5.34
507.55,-5.30
512.62,-5.28
517.75,-5.25
522.93,-5.22
528.16,-5.21
533.44,-5.18
538.77,-5.16
544.16,-5.14
549.60,-5.12
555.10,-5.10
560.65,-5.07
566.25,-5.06
571.92,-5.02
577.64,-5.02
583.41,-4.98
589.25,-4.98
595.14,-4.98
601.09,-4.93
607.10,-4.93
613.17,-4.93
619.30,-4.93
625.50,-4.93
631.75,-4.88
638.07,-4.88
644.45,-4.88
650.89,-4.88
657.40,-4.84
663.98,-4.84
670.62,-4.79
677.32,-4.76
684.10,-4.70
690.94,-4.62
697.85,-4.53
704.83,-4.40
711.87,-4.25
718.99,-4.10
726.18,-3.93
733.44,-3.73
740.78,-3.51
748.19,-3.32
755.67,-3.13
763.23,-2.92
770.86,-2.75
778.57,-2.57
786.35,-2.41
794.22,-2.24
802.16,-2.13
810.18,-1.99
818.28,-1.87
826.46,-1.73
834.73,-1.64
843.08,-1.54
851.51,-1.43
860.02,-1.37
868.62,-1.26
877.31,-1.20
886.08,-1.11
894.94,-1.03
903.89,-0.96
912.93,-0.86
922.06,-0.79
931.28,-0.68
940.59,-0.59
950.00,-0.49
959.50,-0.41
969.09,-0.30
978.78,-0.21
988.57,-0.11
998.46,-0.02
1008.44,0.09
1018.53,0.18
1028.71,0.29
1039.00,0.39
1049.39,0.48
1059.88,0.59
1070.48,0.70
1081.19,0.76
1092.00,0.86
1102.92,0.93
1113.95,0.98
1125.09,1.02
1136.34,1.01
1147.70,0.98
1159.18,0.91
1170.77,0.85
1182.48,0.75
1194.30,0.64
1206.25,0.52
1218.31,0.41
1230.49,0.31
1242.80,0.24
1255.22,0.13
1267.78,0.05
1280.45,-0.04
1293.26,-0.14
1306.19,-0.24
1319.25,-0.36
1332.45,-0.48
1345.77,-0.63
1359.23,-0.76
1372.82,-0.87
1386.55,-0.98
1400.41,-1.08
1414.42,-1.19
1428.56,-1.29
1442.85,-1.39
1457.28,-1.48
1471.85,-1.54
1486.57,-1.62
1501.43,-1.65
1516.45,-1.67
1531.61,-1.65
1546.93,-1.59
1562.40,-1.50
1578.02,-1.42
1593.80,-1.31
1609.74,-1.21
1625.84,-1.11
1642.10,-1.04
1658.52,-0.96
1675.10,-0.90
1691.85,-0.83
1708.77,-0.76
1725.86,-0.72
1743.12,-0.63
1760.55,-0.56
1778.15,-0.46
1795.94,-0.40
1813.90,-0.31
1832.03,-0.25
1850.36,-0.19
1868.86,-0.13
1887.55,-0.09
1906.42,-0.09
1925.49,-0.09
1944.74,-0.13
1964.19,-0.16
1983.83,-0.20
2003.67,-0.27
2023.71,-0.34
2043.94,-0.41
2064.38,-0.48
2085.03,-0.53
2105.88,-0.55
2126.94,-0.55
2148.20,-0.55
2169.69,-0.53
2191.38,-0.46
2213.30,-0.37
2235.43,-0.29
2257.78,-0.16
2280.36,-0.05
2303.17,0.08
2326.20,0.19
2349.46,0.35
2372.95,0.47
2396.68,0.57
2420.65,0.67
2444.86,0.73
2469.31,0.77
2494.00,0.80
2518.94,0.82
2544.13,0.80
2569.57,0.80
2595.27,0.80
2621.22,0.75
2647.43,0.75
2673.90,0.75
2700.64,0.75
2727.65,0.80
2754.93,0.84
2782.48,0.89
2810.30,0.97
2838.40,1.06
2866.79,1.15
2895.46,1.25
2924.41,1.34
2953.65,1.43
2983.19,1.51
3013.02,1.57
3043.15,1.61
3073.58,1.64
3104.32,1.68
3135.36,1.68
3166.72,1.73
3198.38,1.73
3230.37,1.73
3262.67,1.77
3295.30,1.82
3328.25,1.85
3361.53,1.90
3395.15,1.94
3429.10,1.99
3463.39,2.04
3498.03,2.10
3533.01,2.10
3568.34,2.10
3604.02,2.10
3640.06,2.05
3676.46,2.05
3713.22,2.04
3750.36,2.03
3787.86,2.05
3825.74,2.05
3864.00,2.10
3902.64,2.13
3941.66,2.17
3981.08,2.19
4020.89,2.24
4061.10,2.24
4101.71,2.29
4142.73,2.30
4184.15,2.33
4226.00,2.33
4268.26,2.33
4310.94,2.31
4354.05,2.28
4397.59,2.23
4441.56,2.18
4485.98,2.09
4530.84,2.01
4576.15,1.88
4621.91,1.71
4668.13,1.52
4714.81,1.30
4761.96,1.06
4809.58,0.81
4857.67,0.52
4906.25,0.24
4955.31,-0.04
5004.87,-0.32
5054.91,-0.58
5105.46,-0.85
5156.52,-1.07
5208.08,-1.26
5260.16,-1.42
5312.77,-1.52
5365.89,-1.58
5419.55,-1.56
5473.75,-1.51
5528.49,-1.40
5583.77,-1.27
5639.61,-1.14
5696.00,-0.96
5752.96,-0.78
5810.49,-0.59
5868.60,-0.40
5927.28,-0.20
5986.56,-0.00
6046.42,0.14
6106.89,0.31
6167.96,0.44
6229.64,0.55
6291.93,0.66
6354.85,0.70
6418.40,0.70
6482.58,0.68
6547.41,0.59
6612.88,0.45
6679.01,0.29
6745.80,0.10
6813.26,-0.12
6881.39,-0.35
6950.21,-0.59
7019.71,-0.80
7089.91,-0.99
7160.81,-1.18
7232.41,-1.34
7304.74,-1.50
7377.79,-1.62
7451.56,-1.78
7526.08,-1.91
7601.34,-2.04
7677.35,-2.20
7754.13,-2.32
7831.67,-2.46
7909.98,-2.57
7989.08,-2.70
8068.98,-2.81
8149.67,-2.89
8231.16,-2.94
8313.47,-3.00
8396.61,-3.13
8480.57,-3.33
8565.38,-3.64
8651.03,-4.11
8737.54,-4.74
8824.92,-5.55
8913.17,-6.56
9002.30,-7.74
9092.32,-9.08
9183.25,-10.53
9275.08,-12.02
9367.83,-13.49
9461.51,-14.81
9556.12,-15.85
9651.68,-16.63
9748.20,-17.03
9845.68,-16.69
9944.14,-15.96
10043.58,-14.89
10144.02,-13.52
10245.46,-11.98
10347.91,-10.41
10451.39,-8.93
10555.91,-7.58
10661.46,-6.40
10768.08,-5.42
10875.76,-4.57
10984.52,-3.85
11094.36,-3.28
11205.31,-2.76
11317.36,-2.31
11430.53,-1.95
11544.84,-1.62
11660.29,-1.35
11776.89,-1.09
11894.66,-0.85
12013.60,-0.63
12133.74,-0.37
12255.08,-0.13
12377.63,0.11
12501.41,0.31
12626.42,0.45
12752.68,0.44
12880.21,0.21
13009.01,-0.24
13139.10,-0.94
13270.49,-1.90
13403.20,-3.00
13537.23,-4.22
13672.60,-5.42
13809.33,-6.49
13947.42,-7.46
14086.90,-8.27
14227.77,-8.93
14370.04,-9.48
14513.74,-10.02
14658.88,-10.49
14805.47,-11.03
14953.52,-11.56
15103.06,-12.07
15254.09,-12.51
15406.63,-12.92
15560.70,-13.22
15716.30,-13.49
15873.47,-13.65
16032.20,-13.75
16192.52,-13.68
16354.45,-13.52
16517.99,-13.25
16683.17,-12.91
16850.01,-12.57
17018.51,-12.27
17188.69,-12.09
17360.58,-12.21
17534.18,-12.54
17709.53,-13.00
17886.62,-13.58
18065.49,-14.18
18246.14,-14.71
18428.60,-15.17
18612.89,-15.52
18799.02,-15.81
18987.01,-16.04
19176.88,-16.27
19368.65,-16.44
19562.33,-16.64
19757.96,-16.83
19955.54,-16.95
