frequency,raw
20.00,-4.63
20.20,-4.63
20.40,-4.59
20.61,-4.56
20.81,-4.51
21.02,-4.46
21.23,-4.40
21.44,-4.32
21.66,-4.30
21.87,-4.26
22.09,-4.25
22.31,-4.30
22.54,-4.32
22.76,-4.35
22.99,-4.38
23.22,-4.39
23.45,-4.39
23.69,-4.34
23.92,-4.29
24.16,-4.23
24.40,-4.17
24.65,-4.10
24.89,-4.04
25.14,-4.02
25.39,-4.02
25.65,-4.04
25.91,-4.10
26.16,-4.18
26.43,-4.28
26.69,-4.40
26.96,-4.52
27.23,-4.60
27.50,-4.63
27.77,-4.63
28.05,-4.58
28.33,-4.51
28.62,-4.42
28.90,-4.37
29.19,-4.30
29.48,-4.26
29.78,-4.25
30.08,-4.21
30.38,-4.21
30.68,-4.21
30.99,-4.19
31.30,-4.16
31.61,-4.13
31.93,-4.11
32.24,-4.11
32.57,-4.11
32.89,-4.09
33.22,-4.07
33.55,-4.07
33.89,-4.07
34.23,-4.07
34.57,-4.07
34.92,-4.07
35.27,-4.07
35.62,-4.07
35.97,-4.11
36.33,-4.11
36.70,-4.11
37.06,-4.15
37.43,-4.18
37.81,-4.21
38.19,-4.27
38.57,-4.32
38.95,-4.35
39.34,-4.35
39.74,-4.39
40.14,-4.39
40.54,-4.39
40.94,-4.44
41.35,-4.46
41.76,-4.50
42.18,-4.56
42.60,-4.63
43.03,-4.70
43.46,-4.72
43.90,-4.72
44.33,-4.71
44.78,-4.65
45.23,-4.58
45.68,-4.47
46.13,-4.33
46.60,-4.19
47.06,-4.02
47.53,-3.80
48.01,-3.58
48.49,-3.37
48.97,-3.17
49.46,-3.01
49.96,-2.84
50.46,-2.72
50.96,-2.64
51.47,-2.59
51.99,-2.58
52.51,-2.61
53.03,-2.67
53.56,-2.72
54.10,-2.76
54.64,-2.76
55.18,-2.76
55.74,-2.72
56.29,-2.70
56.86,-2.63
57.42,-2.54
58.00,-2.43
58.58,-2.33
59.16,-2.21
59.76,-2.07
60.35,-1.91
60.96,-1.72
61.57,-1.50
62.18,-1.28
62.80,-1.09
63.43,-0.87
64.07,-0.67
64.71,-0.50
65.35,-0.32
66.01,-0.18
66.67,-0.07
67.33,0.06
68.01,0.12
68.69,0.21
69.37,0.25
70.07,0.28
70.77,0.31
71.48,0.27
72.19,0.24
72.91,0.18
73.64,0.11
74.38,0.03
75.12,-0.07
75.87,-0.16
76.63,-0.27
77.40,-0.36
78.17,-0.47
78.95,-0.55
79.74,-0.66
80.54,-0.77
81.35,-0.85
82.16,-0.96
82.98,-1.05
83.81,-1.16
84.65,-1.26
85.50,-1.35
86.35,-1.46
87.22,-1.55
88.09,-1.63
88.97,-1.74
89.86,-1.82
90.76,-1.90
91.66,-1.97
92.58,-2.03
93.51,-2.09
94.44,-2.14
95.39,-2.18
96.34,-2.22
97.30,-2.25
98.28,-2.29
99.26,-2.35
100.25,-2.42
101.25,-2.48
102.27,-2.54
103.29,-2.60
104.32,-2.68
105.37,-2.74
106.42,-2.79
107.48,-2.87
108.56,-2.91
109.64,-2.97
110.74,-3.02
111.85,-3.07
112.97,-3.11
114.10,-3.16
115.24,-3.21
116.39,-3.26
117.55,-3.31
118.73,-3.32
119.92,-3.32
121.12,-3.28
122.33,-3.28
123.55,-3.23
124.79,-3.19
126.03,-3.14
127.29,-3.14
128.57,-3.18
129.85,-3.25
131.15,-3.30
132.46,-3.33
133.79,-3.38
135.12,-3.44
136.48,-3.50
137.84,-3.51
139.22,-3.46
140.61,-3.48
142.02,-3.53
143.44,-3.58
144.87,-3.63
146.32,-3.65
147.78,-3.70
149.26,-3.70
150.75,-3.74
152.26,-3.74
153.78,-3.74
155.32,-3.74
156.88,-3.79
158.44,-3.79
160.03,-3.79
161.63,-3.79
163.24,-3.80
164.88,-3.83
166.53,-3.83
168.19,-3.83
169.87,-3.83
171.57,-3.88
173.29,-3.88
175.02,-3.88
176.77,-3.88
178.54,-3.88
180.32,-3.88
182.13,-3.93
183.95,-3.93
185.79,-3.93
187.65,-3.93
189.52,-3.93
191.42,-3.93
193.33,-3.93
195.27,-3.93
197.22,-3.93
199.19,-3.93
201.18,-3.93
203.19,-3.93
205.23,-3.93
207.28,-3.93
209.35,-3.89
211.44,-3.88
213.56,-3.88
215.69,-3.88
217.85,-3.93
220.03,-3.93
222.23,-3.93
224.45,-3.93
226.70,-3.93
228.96,-3.93
231.25,-3.93
233.57,-3.93
235.90,-3.93
238.26,-3.93
240.64,-3.93
243.05,-3.95
245.48,-3.97
247.93,-3.97
250.41,-3.97
252.92,-3.97
255.45,-3.97
258.00,-3.97
260.58,-3.93
263.19,-3.93
265.82,-3.95
268.48,-3.97
271.16,-3.97
273.87,-3.93
276.61,-3.90
279.38,-3.88
282.17,-3.88
284.99,-3.88
287.84,-3.82
290.72,-3.79
293.63,-3.79
296.57,-3.80
299.53,-3.83
302.53,-3.83
305.55,-3.79
308.61,-3.79
311.69,-3.79
314.81,-3.77
317.96,-3.74
321.14,-3.74
324.35,-3.74
327.59,-3.70
330.87,-3.70
334.18,-3.68
337.52,-3.65
340.90,-3.60
344.30,-3.60
347.75,-3.56
351.23,-3.53
354.74,-3.51
358.28,-3.46
361.87,-3.43
365.49,-3.42
369.14,-3.37
372.83,-3.34
376.56,-3.31
380.33,-3.28
384.13,-3.23
387.97,-3.19
391.85,-3.18
395.77,-3.15
399.73,-3.14
403.72,-3.09
407.76,-3.06
411.84,-2.99
415.96,-2.93
420.12,-2.88
424.32,-2.82
428.56,-2.74
432.85,-2.66
437.18,-2.59
441.55,-2.53
445.96,-2.48
450.42,-2.45
454.93,-2.41
459.48,-2.39
464.07,-2.39
468.71,-2.39
473.40,-2.35
478.13,-2.32
482.91,-2.27
487.74,-2.24
492.62,-2.19
497.55,-2.13
502.52,-2.06
507.55,-1.98
512.62,-1.90
517.75,-1.85
522.93,-1.78
528.16,-1.69
533.44,-1.64
538.77,-1.56
544.16,-1.48
549.60,-1.43
555.10,-1.35
560.65,-1.30
566.25,-1.23
571.92,-1.16
577.64,-1.11
583.41,-1.06
589.25,-1.04
595.14,-1.02
601.09,-1.00
607.10,-0.95
613.17,-0.95
619.30,-0.94
625.50,-0.88
631.75,-0.83
638.07,-0.77
644.45,-0.72
650.89,-0.67
657.40,-0.64
663.98,-0.59
670.62,-0.58
677.32,-0.58
684.10,-0.58
690.94,-0.60
697.85,-0.65
704.83,-0.67
711.87,-0.72
718.99,-0.76
726.18,-0.80
733.44,-0.93
740.78,-1.05
748.19,-1.21
755.67,-1.42
763.23,-1.64
770.86,-1.90
778.57,-2.15
786.35,-2.38
794.22,-2.59
802.16,-2.70
810.18,-2.80
818.28,-2.81
826.46,-2.76
834.73,-2.67
843.08,-2.54
851.51,-2.43
860.02,-2.29
868.62,-2.15
877.31,-1.99
886.08,-1.81
894.94,-1.62
903.89,-1.45
912.93,-1.28
922.06,-1.10
931.28,-0.92
940.59,-0.79
950.00,-0.63
959.50,-0.52
969.09,-0.38
978.78,-0.26
988.57,-0.13
998.46,-0.02
1008.44,0.09
1018.53,0.20
1028.71,0.31
1039.00,0.42
1049.39,0.50
1059.88,0.61
1070.48,0.68
1081.19,0.73
1092.00,0.77
1102.92,0.73
1113.95,0.69
1125.09,0.62
1136.34,0.55
1147.70,0.44
1159.18,0.35
1170.77,0.26
1182.48,0.16
1194.30,0.09
1206.25,-0.01
1218.31,-0.09
1230.49,-0.18
1242.80,-0.29
1255.22,-0.40
1267.78,-0.46
1280.45,-0.57
1293.26,-0.67
1306.19,-0.74
1319.25,-0.83
1332.45,-0.91
1345.77,-1.00
1359.23,-1.13
1372.82,-1.25
1386.55,-1.41
1400.41,-1.57
1414.42,-1.73
1428.56,-1.86
1442.85,-1.99
1457.28,-2.05
1471.85,-2.10
1486.57,-2.00
1501.43,-1.88
1516.45,-1.71
1531.61,-1.49
1546.93,-1.27
1562.40,-1.03
1578.02,-0.84
1593.80,-0.66
1609.74,-0.54
1625.84,-0.46
1642.10,-0.44
1658.52,-0.44
1675.10,-0.44
1691.85,-0.47
1708.77,-0.50
1725.86,-0.53
1743.12,-0.54
1760.55,-0.55
1778.15,-0.53
1795.94,-0.53
1813.90,-0.53
1832.03,-0.46
1850.36,-0.38
1868.86,-0.29
1887.55,-0.18
1906.42,-0.07
1925.49,0.05
1944.74,0.17
1964.19,0.24
1983.83,0.26
2003.67,0.26
2023.71,0.26
2043.94,0.26
2064.38,0.31
2085.03,0.39
2105.88,0.53
2126.94,0.68
2148.20,0.88
2169.69,1.09
2191.38,1.33
2213.30,1.57
2235.43,1.83
2257.78,2.08
2280.36,2.33
2303.17,2.59
2326.20,2.83
2349.46,3.07
2372.95,3.31
2396.68,3.50
2420.65,3.69
2444.86,3.86
2469.31,4.01
2494.00,4.15
2518.94,4.25
2544.13,4.36
2569.57,4.41
2595.27,4.48
2621.22,4.52
2647.43,4.54
2673.90,4.59
2700.64,4.59
2727.65,4.64
2754.93,4.68
2782.48,4.69
2810.30,4.73
2838.40,4.77
2866.79,4.80
2895.46,4.82
2924.41,4.86
2953.65,4.87
2983.19,4.87
3013.02,4.87
3043.15,4.85
3073.58,4.81
3104.32,4.77
3135.36,4.71
3166.72,4.64
3198.38,4.57
3230.37,4.49
3262.67,4.42
3295.30,4.32
3328.25,4.22
3361.53,4.13
3395.15,4.00
3429.10,3.84
3463.39,3.72
3498.03,3.56
3533.01,3.40
3568.34,3.23
3604.02,3.07
3640.06,2.91
3676.46,2.79
3713.22,2.69
3750.36,2.61
3787.86,2.60
3825.74,2.65
3864.00,2.74
3902.64,2.84
3941.66,2.99
3981.08,3.14
4020.89,3.31
4061.10,3.48
4101.71,3.64
4142.73,3.79
4184.15,3.93
4226.00,4.06
4268.26,4.17
4310.94,4.30
4354.05,4.36
4397.59,4.44
4441.56,4.45
4485.98,4.45
4530.84,4.37
4576.15,4.29
4621.91,4.16
4668.13,4.02
4714.81,3.88
4761.96,3.71
4809.58,3.54
4857.67,3.39
4906.25,3.23
4955.31,3.11
5004.87,2.99
5054.91,2.91
5105.46,2.82
5156.52,2.76
5208.08,2.70
5260.16,2.61
5312.77,2.52
5365.89,2.41
5419.55,2.27
5473.75,2.11
5528.49,1.87
5583.77,1.57
5639.61,1.21
5696.00,0.80
5752.96,0.30
5810.49,-0.29
5868.60,-0.95
5927.28,-1.73
5986.56,-2.54
6046.42,-3.31
6106.89,-4.05
6167.96,-4.65
6229.64,-5.05
6291.93,-5.29
6354.85,-5.22
6418.40,-4.96
6482.58,-4.57
6547.41,-4.11
6612.88,-3.67
6679.01,-3.27
6745.80,-2.96
6813.26,-2.77
6881.39,-2.66
6950.21,-2.60
7019.71,-2.52
7089.91,-2.42
7160.81,-2.26
7232.41,-2.03
7304.74,-1.70
7377.79,-1.31
7451.56,-0.88
7526.08,-0.43
7601.34,-0.01
7677.35,0.34
7754.13,0.60
7831.67,0.77
7909.98,0.71
7989.08,0.51
8068.98,0.20
8149.67,-0.22
8231.16,-0.68
8313.47,-1.22
8396.61,-1.82
8480.57,-2.47
8565.38,-3.20
8651.03,-3.96
8737.54,-4.80
8824.92,-5.64
8913.17,-6.43
9002.30,-7.06
9092.32,-7.56
9183.25,-7.82
9275.08,-7.61
9367.83,-7.14
9461.51,-6.48
9556.12,-5.64
9651.68,-4.72
9748.20,-3.81
9845.68,-2.97
9944.14,-2.32
10043.58,-1.87
10144.02,-1.57
10245.46,-1.62
10347.91,-1.96
10451.39,-2.42
10555.91,-3.00
10661.46,-3.63
10768.08,-4.24
10875.76,-4.77
10984.52,-5.18
11094.36,-5.45
11205.31,-5.58
11317.36,-5.56
11430.53,-5.52
11544.84,-5.68
11660.29,-6.07
11776.89,-6.70
11894.66,-7.55
12013.60,-8.55
12133.74,-9.61
12255.08,-10.60
12377.63,-11.39
12501.41,-11.97
12626.42,-12.34
12752.68,-12.31
12880.21,-11.98
13009.01,-11.60
13139.10,-11.13
13270.49,-10.68
13403.20,-10.32
13537.23,-10.06
13672.60,-9.90
13809.33,-9.84
13947.42,-9.99
14086.90,-10.28
14227.77,-10.65
14370.04,-11.16
14513.74,-11.71
14658.88,-12.11
14805.47,-12.45
14953.52,-12.42
15103.06,-12.18
15254.09,-11.87
15406.63,-11.61
15560.70,-11.38
15716.30,-11.50
15873.47,-11.65
16032.20,-11.83
16192.52,-11.96
16354.45,-12.05
16517.99,-12.04
16683.17,-11.67
16850.01,-11.05
17018.51,-10.29
17188.69,-9.44
17360.58,-8.70
17534.18,-8.14
17709.53,-7.80
17886.62,-7.75
18065.49,-8.07
18246.14,-8.61
18428.60,-9.44
18612.89,-10.49
18799.02,-11.65
18987.01,-12.88
19176.88,-13.99
19368.65,-14.87
19562.33,-15.62
19757.96,-16.14
19955.54,-16.38
