frequency,raw,smoothed,error,error_smoothed,equalization,parametric_eq,fixed_band_eq,equalized_raw,equalized_smoothed,target
20.00,7.66,7.66,1.20,1.20,-1.20,-2.74,-1.25,6.46,6.46,6.46
20.20,7.73,7.73,1.27,1.26,-1.26,-2.74,-1.29,6.47,6.46,6.46
20.40,7.79,7.79,1.33,1.33,-1.33,-2.74,-1.33,6.46,6.46,6.46
20.61,7.85,7.85,1.39,1.39,-1.39,-2.75,-1.37,6.46,6.46,6.46
20.81,7.91,7.91,1.45,1.45,-1.45,-2.75,-1.40,6.46,6.46,6.46
21.02,7.97,7.97,1.51,1.51,-1.51,-2.76,-1.44,6.46,6.46,6.46
21.23,8.03,8.03,1.57,1.57,-1.57,-2.76,-1.49,6.46,6.46,6.46
21.44,8.09,8.09,1.63,1.63,-1.63,-2.77,-1.53,6.46,6.46,6.46
21.66,8.15,8.15,1.69,1.69,-1.69,-2.77,-1.57,6.46,6.46,6.46
21.87,8.21,8.21,1.76,1.75,-1.75,-2.78,-1.62,6.46,6.46,6.46
22.09,8.26,8.26,1.81,1.81,-1.81,-2.78,-1.66,6.45,6.46,6.46
22.31,8.32,8.32,1.87,1.86,-1.86,-2.79,-1.71,6.46,6.45,6.45
22.54,8.37,8.37,1.92,1.92,-1.92,-2.80,-1.76,6.45,6.45,6.45
22.76,8.42,8.43,1.97,1.97,-1.97,-2.80,-1.81,6.45,6.45,6.45
22.99,8.48,8.48,2.03,2.02,-2.02,-2.81,-1.86,6.46,6.45,6.45
23.22,8.53,8.53,2.08,2.08,-2.07,-2.81,-1.92,6.46,6.45,6.45
23.45,8.57,8.57,2.12,2.12,-2.12,-2.82,-1.97,6.45,6.45,6.45
23.69,8.62,8.62,2.17,2.17,-2.17,-2.83,-2.02,6.45,6.45,6.45
23.92,8.67,8.67,2.22,2.22,-2.22,-2.83,-2.08,6.45,6.45,6.45
24.16,8.72,8.72,2.27,2.27,-2.27,-2.84,-2.14,6.45,6.44,6.45
24.40,8.76,8.76,2.32,2.32,-2.32,-2.85,-2.19,6.44,6.44,6.45
24.65,8.81,8.81,2.37,2.37,-2.37,-2.85,-2.25,6.44,6.44,6.44
24.89,8.86,8.86,2.42,2.42,-2.42,-2.86,-2.31,6.44,6.44,6.44
25.14,8.91,8.91,2.47,2.47,-2.47,-2.87,-2.37,6.45,6.44,6.44
25.39,8.95,8.96,2.51,2.52,-2.51,-2.88,-2.43,6.44,6.44,6.44
25.65,9.00,9.00,2.56,2.56,-2.56,-2.88,-2.49,6.44,6.44,6.44
25.91,9.04,9.04,2.60,2.60,-2.60,-2.89,-2.55,6.44,6.44,6.44
26.16,9.07,9.08,2.64,2.64,-2.64,-2.90,-2.62,6.43,6.44,6.44
26.43,9.11,9.11,2.68,2.68,-2.68,-2.91,-2.68,6.43,6.43,6.43
26.69,9.15,9.15,2.72,2.71,-2.72,-2.92,-2.74,6.44,6.43,6.43
26.96,9.18,9.18,2.75,2.75,-2.75,-2.93,-2.80,6.43,6.43,6.43
27.23,9.21,9.21,2.78,2.79,-2.79,-2.94,-2.85,6.42,6.43,6.43
27.50,9.25,9.25,2.82,2.82,-2.82,-2.94,-2.91,6.43,6.42,6.43
27.77,9.28,9.28,2.86,2.86,-2.86,-2.95,-2.97,6.42,6.43,6.42
28.05,9.32,9.32,2.90,2.90,-2.89,-2.96,-3.02,6.43,6.42,6.42
28.33,9.35,9.35,2.93,2.93,-2.93,-2.97,-3.07,6.42,6.42,6.42
28.62,9.38,9.38,2.96,2.96,-2.96,-2.98,-3.12,6.42,6.42,6.42
28.90,9.41,9.41,2.99,2.99,-3.00,-3.00,-3.17,6.42,6.41,6.42
29.19,9.44,9.44,3.03,3.03,-3.03,-3.01,-3.21,6.41,6.41,6.41
29.48,9.47,9.47,3.06,3.06,-3.06,-3.02,-3.25,6.41,6.41,6.41
29.78,9.50,9.50,3.09,3.09,-3.09,-3.03,-3.29,6.41,6.41,6.41
30.08,9.53,9.53,3.12,3.12,-3.12,-3.04,-3.33,6.41,6.41,6.41
30.38,9.55,9.55,3.15,3.15,-3.15,-3.05,-3.36,6.40,6.40,6.40
30.68,9.58,9.58,3.18,3.18,-3.18,-3.07,-3.39,6.40,6.40,6.40
30.99,9.60,9.60,3.20,3.21,-3.21,-3.08,-3.41,6.39,6.40,6.40
31.30,9.63,9.63,3.24,3.23,-3.23,-3.09,-3.43,6.40,6.40,6.39
31.61,9.65,9.65,3.26,3.26,-3.26,-3.11,-3.45,6.39,6.39,6.39
31.93,9.67,9.67,3.28,3.28,-3.28,-3.12,-3.46,6.39,6.39,6.39
32.24,9.69,9.69,3.31,3.31,-3.31,-3.14,-3.47,6.39,6.39,6.39
32.57,9.71,9.71,3.33,3.33,-3.33,-3.15,-3.47,6.38,6.38,6.38
32.89,9.73,9.73,3.35,3.35,-3.35,-3.17,-3.48,6.38,6.38,6.38
33.22,9.74,9.75,3.37,3.37,-3.37,-3.18,-3.47,6.37,6.37,6.37
33.55,9.76,9.76,3.39,3.39,-3.39,-3.20,-3.47,6.37,6.37,6.37
33.89,9.78,9.78,3.41,3.41,-3.41,-3.22,-3.46,6.37,6.37,6.37
34.23,9.79,9.79,3.43,3.43,-3.43,-3.23,-3.45,6.36,6.36,6.36
34.57,9.81,9.81,3.45,3.45,-3.45,-3.25,-3.44,6.36,6.36,6.36
34.92,9.82,9.82,3.47,3.47,-3.47,-3.27,-3.43,6.35,6.35,6.35
35.27,9.83,9.83,3.48,3.48,-3.48,-3.29,-3.41,6.35,6.35,6.35
35.62,9.84,9.84,3.50,3.50,-3.50,-3.31,-3.40,6.34,6.34,6.34
35.97,9.85,9.85,3.51,3.52,-3.52,-3.32,-3.38,6.33,6.34,6.34
36.33,9.87,9.87,3.54,3.54,-3.53,-3.34,-3.37,6.34,6.34,6.33
36.70,9.88,9.88,3.55,3.55,-3.55,-3.36,-3.35,6.33,6.33,6.33
37.06,9.89,9.89,3.57,3.57,-3.56,-3.38,-3.33,6.33,6.32,6.32
37.43,9.89,9.89,3.57,3.58,-3.58,-3.40,-3.31,6.31,6.31,6.32
37.81,9.90,9.90,3.59,3.59,-3.60,-3.42,-3.30,6.31,6.31,6.31
38.19,9.91,9.91,3.61,3.61,-3.61,-3.44,-3.28,6.30,6.30,6.30
38.57,9.92,9.92,3.62,3.62,-3.62,-3.46,-3.26,6.30,6.30,6.30
38.95,9.93,9.93,3.64,3.64,-3.63,-3.47,-3.25,6.30,6.30,6.29
39.34,9.93,9.93,3.65,3.65,-3.64,-3.49,-3.24,6.29,6.29,6.28
39.74,9.93,9.93,3.65,3.66,-3.65,-3.51,-3.23,6.28,6.28,6.28
40.14,9.93,9.93,3.66,3.66,-3.67,-3.53,-3.22,6.27,6.26,6.27
40.54,9.93,9.93,3.67,3.67,-3.68,-3.54,-3.21,6.25,6.26,6.26
40.94,9.93,9.93,3.68,3.68,-3.69,-3.56,-3.20,6.25,6.25,6.25
41.35,9.94,9.94,3.70,3.69,-3.69,-3.57,-3.20,6.25,6.24,6.24
41.76,9.94,9.94,3.71,3.71,-3.70,-3.59,-3.20,6.24,6.24,6.24
42.18,9.94,9.94,3.71,3.72,-3.71,-3.60,-3.20,6.23,6.23,6.23
42.60,9.94,9.94,3.72,3.72,-3.72,-3.61,-3.20,6.22,6.22,6.22
43.03,9.93,9.93,3.72,3.73,-3.73,-3.62,-3.21,6.21,6.21,6.21
43.46,9.93,9.93,3.73,3.73,-3.73,-3.63,-3.22,6.20,6.20,6.20
43.90,9.92,9.92,3.73,3.73,-3.74,-3.64,-3.23,6.19,6.18,6.19
44.33,9.91,9.91,3.74,3.74,-3.74,-3.65,-3.24,6.17,6.17,6.18
44.78,9.90,9.90,3.74,3.74,-3.74,-3.66,-3.26,6.16,6.16,6.16
45.23,9.90,9.90,3.75,3.74,-3.75,-3.66,-3.27,6.16,6.15,6.15
45.68,9.89,9.89,3.75,3.75,-3.75,-3.67,-3.29,6.14,6.14,6.14
46.13,9.88,9.88,3.75,3.75,-3.75,-3.68,-3.32,6.13,6.13,6.13
46.60,9.87,9.87,3.76,3.76,-3.75,-3.68,-3.34,6.12,6.12,6.12
47.06,9.86,9.86,3.76,3.76,-3.76,-3.69,-3.37,6.10,6.10,6.10
47.53,9.85,9.85,3.76,3.76,-3.76,-3.69,-3.40,6.09,6.09,6.09
48.01,9.83,9.83,3.76,3.76,-3.76,-3.70,-3.43,6.07,6.07,6.07
48.49,9.82,9.82,3.76,3.76,-3.76,-3.70,-3.46,6.06,6.06,6.06
48.97,9.81,9.81,3.77,3.77,-3.77,-3.71,-3.50,6.04,6.04,6.04
49.46,9.80,9.80,3.77,3.77,-3.77,-3.71,-3.54,6.03,6.03,6.03
49.96,9.78,9.78,3.77,3.77,-3.77,-3.72,-3.58,6.01,6.01,6.01
50.46,9.77,9.77,3.78,3.77,-3.77,-3.72,-3.62,6.00,5.99,5.99
50.96,9.75,9.75,3.77,3.78,-3.78,-3.73,-3.66,5.97,5.98,5.98
51.47,9.74,9.74,3.78,3.78,-3.78,-3.73,-3.70,5.96,5.96,5.96
51.99,9.72,9.72,3.78,3.78,-3.78,-3.74,-3.75,5.94,5.94,5.94
52.51,9.71,9.71,3.79,3.79,-3.79,-3.75,-3.79,5.93,5.92,5.92
53.03,9.69,9.69,3.79,3.79,-3.79,-3.75,-3.84,5.90,5.90,5.90
53.56,9.67,9.67,3.79,3.79,-3.79,-3.76,-3.88,5.88,5.88,5.88
54.10,9.65,9.65,3.79,3.79,-3.80,-3.77,-3.93,5.86,5.86,5.86
54.64,9.63,9.63,3.79,3.80,-3.80,-3.78,-3.97,5.83,5.84,5.84
55.18,9.62,9.62,3.81,3.80,-3.80,-3.78,-4.02,5.82,5.82,5.81
55.74,9.60,9.60,3.81,3.81,-3.81,-3.79,-4.06,5.80,5.79,5.79
56.29,9.58,9.58,3.81,3.81,-3.81,-3.80,-4.10,5.77,5.77,5.77
56.86,9.55,9.56,3.81,3.81,-3.81,-3.81,-4.15,5.74,5.74,5.74
57.42,9.53,9.53,3.81,3.81,-3.82,-3.82,-4.18,5.71,5.72,5.72
58.00,9.51,9.51,3.82,3.82,-3.82,-3.83,-4.22,5.69,5.69,5.69
58.58,9.48,9.48,3.82,3.82,-3.82,-3.84,-4.26,5.66,5.66,5.66
59.16,9.46,9.46,3.83,3.83,-3.83,-3.86,-4.29,5.63,5.64,5.64
59.76,9.44,9.44,3.83,3.83,-3.83,-3.87,-4.32,5.61,5.61,5.61
60.35,9.41,9.41,3.83,3.84,-3.83,-3.88,-4.34,5.58,5.58,5.58
60.96,9.38,9.39,3.83,3.84,-3.84,-3.89,-4.36,5.54,5.55,5.55
61.57,9.36,9.36,3.85,3.84,-3.84,-3.90,-4.38,5.52,5.51,5.51
62.18,9.33,9.33,3.85,3.85,-3.85,-3.92,-4.40,5.48,5.48,5.48
62.80,9.30,9.30,3.85,3.85,-3.85,-3.93,-4.41,5.45,5.45,5.45
63.43,9.27,9.27,3.86,3.86,-3.86,-3.94,-4.41,5.41,5.41,5.41
64.07,9.24,9.24,3.86,3.86,-3.86,-3.96,-4.42,5.38,5.38,5.38
64.71,9.21,9.21,3.87,3.87,-3.87,-3.97,-4.42,5.34,5.34,5.34
65.35,9.18,9.18,3.87,3.87,-3.88,-3.99,-4.42,5.30,5.31,5.31
66.01,9.15,9.15,3.88,3.88,-3.88,-4.00,-4.41,5.27,5.27,5.27
66.67,9.12,9.12,3.89,3.89,-3.89,-4.02,-4.40,5.23,5.23,5.23
67.33,9.09,9.09,3.90,3.90,-3.90,-4.03,-4.39,5.19,5.19,5.19
68.01,9.06,9.06,3.91,3.91,-3.91,-4.05,-4.38,5.15,5.15,5.15
68.69,9.03,9.03,3.92,3.92,-3.92,-4.06,-4.36,5.11,5.11,5.11
69.37,9.00,9.00,3.94,3.94,-3.93,-4.08,-4.34,5.07,5.06,5.06
70.07,8.96,8.96,3.94,3.94,-3.94,-4.10,-4.32,5.02,5.02,5.02
70.77,8.93,8.93,3.96,3.96,-3.95,-4.11,-4.31,4.98,4.97,4.97
71.48,8.89,8.89,3.96,3.97,-3.97,-4.13,-4.28,4.93,4.93,4.93
72.19,8.86,8.86,3.98,3.98,-3.98,-4.15,-4.26,4.88,4.88,4.88
72.91,8.82,8.82,3.99,3.99,-3.99,-4.16,-4.24,4.83,4.83,4.83
73.64,8.78,8.78,4.00,4.00,-4.00,-4.18,-4.22,4.78,4.78,4.78
74.38,8.75,8.75,4.02,4.02,-4.02,-4.20,-4.20,4.73,4.73,4.73
75.12,8.71,8.71,4.03,4.03,-4.03,-4.21,-4.18,4.68,4.68,4.68
75.87,8.68,8.68,4.05,4.05,-4.05,-4.23,-4.16,4.63,4.63,4.63
76.63,8.64,8.64,4.06,4.06,-4.07,-4.25,-4.15,4.58,4.58,4.58
77.40,8.60,8.60,4.08,4.08,-4.08,-4.27,-4.13,4.52,4.52,4.52
78.17,8.57,8.57,4.10,4.10,-4.10,-4.29,-4.12,4.47,4.47,4.47
78.95,8.53,8.53,4.12,4.12,-4.12,-4.30,-4.11,4.41,4.41,4.41
79.74,8.49,8.49,4.14,4.14,-4.14,-4.32,-4.10,4.35,4.35,4.35
80.54,8.45,8.45,4.16,4.16,-4.16,-4.34,-4.09,4.29,4.29,4.29
81.35,8.41,8.41,4.18,4.18,-4.18,-4.36,-4.09,4.23,4.23,4.24
82.16,8.37,8.37,4.20,4.20,-4.20,-4.38,-4.08,4.18,4.18,4.17
82.98,8.33,8.33,4.22,4.22,-4.21,-4.40,-4.09,4.12,4.12,4.11
83.81,8.29,8.29,4.24,4.24,-4.24,-4.42,-4.09,4.06,4.05,4.05
84.65,8.24,8.24,4.25,4.25,-4.26,-4.43,-4.10,3.98,3.99,3.99
85.50,8.20,8.20,4.28,4.28,-4.28,-4.45,-4.11,3.92,3.92,3.93
86.35,8.16,8.16,4.30,4.30,-4.30,-4.47,-4.12,3.86,3.86,3.86
87.22,8.12,8.12,4.32,4.32,-4.32,-4.49,-4.14,3.80,3.80,3.80
88.09,8.08,8.08,4.35,4.35,-4.35,-4.51,-4.15,3.73,3.73,3.73
88.97,8.03,8.04,4.37,4.37,-4.37,-4.53,-4.18,3.66,3.66,3.66
89.86,7.99,7.99,4.39,4.39,-4.39,-4.55,-4.20,3.60,3.60,3.60
90.76,7.95,7.95,4.42,4.42,-4.42,-4.57,-4.23,3.53,3.53,3.53
91.66,7.90,7.90,4.44,4.44,-4.44,-4.59,-4.26,3.46,3.46,3.46
92.58,7.86,7.86,4.47,4.47,-4.47,-4.61,-4.30,3.39,3.39,3.39
93.51,7.81,7.81,4.49,4.49,-4.49,-4.63,-4.34,3.32,3.32,3.32
94.44,7.77,7.77,4.52,4.52,-4.52,-4.65,-4.38,3.25,3.25,3.25
95.39,7.72,7.72,4.54,4.54,-4.54,-4.67,-4.42,3.18,3.18,3.18
96.34,7.68,7.68,4.57,4.57,-4.57,-4.69,-4.47,3.11,3.11,3.11
97.30,7.63,7.63,4.59,4.59,-4.59,-4.71,-4.52,3.04,3.04,3.04
98.28,7.58,7.58,4.62,4.62,-4.62,-4.73,-4.57,2.96,2.97,2.96
99.26,7.54,7.54,4.65,4.64,-4.64,-4.75,-4.62,2.90,2.89,2.89
100.25,7.49,7.49,4.67,4.67,-4.67,-4.77,-4.68,2.82,2.82,2.82
101.25,7.44,7.44,4.69,4.69,-4.69,-4.79,-4.73,2.75,2.75,2.75
102.27,7.39,7.39,4.72,4.72,-4.72,-4.81,-4.79,2.67,2.67,2.67
103.29,7.35,7.35,4.75,4.75,-4.75,-4.83,-4.85,2.61,2.60,2.60
104.32,7.30,7.30,4.77,4.77,-4.77,-4.85,-4.91,2.53,2.53,2.53
105.37,7.25,7.25,4.80,4.80,-4.80,-4.87,-4.98,2.46,2.46,2.46
106.42,7.20,7.20,4.82,4.82,-4.82,-4.89,-5.04,2.38,2.38,2.38
107.48,7.15,7.15,4.84,4.84,-4.85,-4.91,-5.10,2.30,2.31,2.31
108.56,7.11,7.11,4.87,4.87,-4.87,-4.93,-5.16,2.24,2.24,2.24
109.64,7.06,7.06,4.90,4.90,-4.89,-4.96,-5.22,2.17,2.17,2.16
110.74,7.01,7.01,4.92,4.92,-4.92,-4.98,-5.28,2.09,2.09,2.09
111.85,6.96,6.96,4.94,4.94,-4.94,-5.00,-5.34,2.02,2.02,2.02
112.97,6.91,6.91,4.96,4.96,-4.96,-5.02,-5.39,1.95,1.95,1.95
114.10,6.86,6.86,4.99,4.99,-4.99,-5.04,-5.44,1.87,1.87,1.88
115.24,6.81,6.81,5.01,5.01,-5.01,-5.06,-5.49,1.80,1.80,1.80
116.39,6.76,6.76,5.03,5.03,-5.03,-5.08,-5.53,1.73,1.73,1.73
117.55,6.71,6.71,5.05,5.05,-5.05,-5.10,-5.57,1.66,1.66,1.66
118.73,6.66,6.66,5.07,5.07,-5.07,-5.11,-5.61,1.59,1.59,1.59
119.92,6.61,6.61,5.09,5.09,-5.09,-5.13,-5.63,1.52,1.52,1.52
121.12,6.56,6.56,5.11,5.11,-5.11,-5.15,-5.66,1.45,1.45,1.45
122.33,6.51,6.51,5.12,5.13,-5.12,-5.17,-5.67,1.39,1.39,1.39
123.55,6.46,6.46,5.14,5.14,-5.14,-5.19,-5.69,1.32,1.32,1.32
124.79,6.41,6.41,5.16,5.16,-5.15,-5.21,-5.69,1.26,1.25,1.25
126.03,6.35,6.35,5.16,5.17,-5.17,-5.22,-5.69,1.18,1.19,1.19
127.29,6.30,6.30,5.18,5.18,-5.18,-5.24,-5.68,1.12,1.12,1.12
128.57,6.25,6.25,5.20,5.19,-5.19,-5.26,-5.67,1.06,1.05,1.06
129.85,6.19,6.19,5.20,5.20,-5.20,-5.27,-5.65,0.99,0.99,0.99
131.15,6.14,6.14,5.21,5.21,-5.21,-5.29,-5.63,0.93,0.93,0.93
132.46,6.09,6.09,5.22,5.22,-5.22,-5.30,-5.60,0.87,0.87,0.87
133.79,6.04,6.04,5.24,5.23,-5.23,-5.31,-5.57,0.81,0.81,0.81
135.12,5.98,5.98,5.24,5.24,-5.24,-5.33,-5.53,0.74,0.74,0.75
136.48,5.93,5.93,5.25,5.25,-5.25,-5.34,-5.49,0.68,0.68,0.69
137.84,5.88,5.88,5.25,5.25,-5.26,-5.35,-5.44,0.63,0.62,0.63
139.22,5.83,5.83,5.26,5.26,-5.26,-5.36,-5.39,0.57,0.57,0.57
140.61,5.78,5.78,5.27,5.27,-5.27,-5.37,-5.34,0.51,0.51,0.51
142.02,5.73,5.73,5.27,5.27,-5.27,-5.38,-5.29,0.46,0.46,0.46
143.44,5.68,5.68,5.28,5.28,-5.28,-5.39,-5.23,0.41,0.40,0.40
144.87,5.63,5.63,5.28,5.28,-5.28,-5.39,-5.18,0.35,0.35,0.35
146.32,5.57,5.57,5.27,5.28,-5.28,-5.40,-5.12,0.29,0.30,0.30
147.78,5.52,5.52,5.28,5.28,-5.28,-5.41,-5.06,0.24,0.24,0.24
149.26,5.47,5.47,5.28,5.27,-5.27,-5.41,-5.00,0.20,0.19,0.19
150.75,5.41,5.41,5.27,5.27,-5.27,-5.41,-4.95,0.14,0.15,0.14
152.26,5.36,5.36,5.26,5.26,-5.26,-5.41,-4.89,0.10,0.10,0.10
153.78,5.31,5.31,5.26,5.26,-5.26,-5.41,-4.83,0.05,0.05,0.05
155.32,5.25,5.25,5.25,5.25,-5.25,-5.41,-4.78,-0.00,0.00,0.00
156.88,5.20,5.20,5.24,5.24,-5.24,-5.41,-4.73,-0.04,-0.04,-0.04
158.44,5.15,5.15,5.24,5.23,-5.24,-5.40,-4.68,-0.09,-0.09,-0.09
160.03,5.09,5.09,5.22,5.23,-5.23,-5.40,-4.63,-0.14,-0.14,-0.13
161.63,5.04,5.04,5.22,5.22,-5.22,-5.39,-4.59,-0.18,-0.18,-0.18
163.24,4.99,4.99,5.22,5.21,-5.21,-5.38,-4.55,-0.22,-0.22,-0.22
164.88,4.94,4.94,5.21,5.21,-5.20,-5.37,-4.51,-0.26,-0.26,-0.27
166.53,4.89,4.89,5.20,5.19,-5.19,-5.36,-4.47,-0.30,-0.30,-0.30
168.19,4.84,4.84,5.18,5.18,-5.18,-5.35,-4.44,-0.34,-0.34,-0.34
169.87,4.78,4.78,5.16,5.16,-5.17,-5.34,-4.41,-0.38,-0.38,-0.38
171.57,4.73,4.73,5.15,5.15,-5.15,-5.32,-4.38,-0.42,-0.42,-0.42
173.29,4.68,4.68,5.13,5.13,-5.13,-5.31,-4.36,-0.45,-0.45,-0.45
175.02,4.63,4.63,5.12,5.11,-5.11,-5.29,-4.34,-0.48,-0.48,-0.49
176.77,4.57,4.57,5.09,5.09,-5.09,-5.27,-4.32,-0.52,-0.52,-0.52
178.54,4.51,4.51,5.06,5.07,-5.07,-5.25,-4.31,-0.56,-0.56,-0.55
180.32,4.46,4.46,5.05,5.04,-5.05,-5.23,-4.30,-0.59,-0.59,-0.58
182.13,4.41,4.41,5.03,5.03,-5.03,-5.21,-4.29,-0.62,-0.62,-0.62
183.95,4.36,4.36,5.01,5.01,-5.01,-5.18,-4.28,-0.65,-0.65,-0.65
185.79,4.31,4.31,4.99,4.99,-4.98,-5.16,-4.28,-0.67,-0.67,-0.67
187.65,4.26,4.26,4.96,4.96,-4.96,-5.13,-4.29,-0.70,-0.70,-0.70
189.52,4.21,4.21,4.94,4.94,-4.94,-5.10,-4.29,-0.73,-0.73,-0.73
191.42,4.16,4.16,4.92,4.92,-4.91,-5.07,-4.30,-0.75,-0.75,-0.76
193.33,4.10,4.10,4.88,4.89,-4.89,-5.04,-4.31,-0.78,-0.78,-0.78
195.27,4.05,4.05,4.86,4.86,-4.86,-5.01,-4.32,-0.81,-0.81,-0.81
197.22,3.99,3.99,4.82,4.83,-4.83,-4.98,-4.34,-0.84,-0.83,-0.83
199.19,3.94,3.94,4.80,4.80,-4.80,-4.95,-4.36,-0.86,-0.86,-0.86
201.18,3.89,3.89,4.77,4.77,-4.77,-4.91,-4.38,-0.88,-0.88,-0.88
203.19,3.84,3.84,4.74,4.74,-4.74,-4.88,-4.40,-0.90,-0.90,-0.90
205.23,3.78,3.79,4.70,4.71,-4.71,-4.84,-4.42,-0.93,-0.92,-0.92
207.28,3.74,3.74,4.68,4.68,-4.68,-4.80,-4.45,-0.94,-0.94,-0.94
209.35,3.69,3.69,4.65,4.65,-4.65,-4.77,-4.47,-0.96,-0.96,-0.96
211.44,3.64,3.64,4.62,4.62,-4.62,-4.73,-4.50,-0.98,-0.98,-0.98
213.56,3.59,3.59,4.59,4.59,-4.59,-4.69,-4.53,-1.00,-1.00,-1.00
215.69,3.54,3.54,4.56,4.56,-4.56,-4.65,-4.55,-1.02,-1.02,-1.02
217.85,3.50,3.49,4.54,4.53,-4.53,-4.61,-4.58,-1.03,-1.04,-1.04
220.03,3.44,3.44,4.50,4.50,-4.50,-4.57,-4.61,-1.06,-1.06,-1.05
222.23,3.39,3.39,4.46,4.46,-4.47,-4.53,-4.63,-1.07,-1.07,-1.07
224.45,3.34,3.34,4.43,4.43,-4.43,-4.48,-4.65,-1.09,-1.09,-1.09
226.70,3.30,3.30,4.40,4.40,-4.40,-4.44,-4.67,-1.10,-1.10,-1.10
228.96,3.25,3.25,4.37,4.37,-4.37,-4.40,-4.69,-1.12,-1.12,-1.12
231.25,3.20,3.20,4.33,4.33,-4.33,-4.36,-4.70,-1.13,-1.13,-1.13
233.57,3.15,3.15,4.30,4.30,-4.30,-4.31,-4.71,-1.15,-1.15,-1.15
235.90,3.10,3.10,4.27,4.27,-4.26,-4.27,-4.72,-1.16,-1.16,-1.17
238.26,3.05,3.05,4.23,4.23,-4.23,-4.23,-4.72,-1.18,-1.18,-1.18
240.64,3.00,3.00,4.20,4.19,-4.19,-4.18,-4.72,-1.19,-1.20,-1.20
243.05,2.94,2.94,4.15,4.15,-4.15,-4.14,-4.72,-1.21,-1.21,-1.21
245.48,2.89,2.89,4.11,4.11,-4.12,-4.10,-4.70,-1.23,-1.22,-1.22
247.93,2.85,2.85,4.08,4.08,-4.08,-4.05,-4.69,-1.23,-1.23,-1.23
250.41,2.80,2.80,4.04,4.04,-4.04,-4.01,-4.66,-1.24,-1.24,-1.24
252.92,2.75,2.75,4.00,4.00,-4.00,-3.96,-4.64,-1.25,-1.25,-1.25
255.45,2.70,2.70,3.96,3.96,-3.96,-3.92,-4.61,-1.26,-1.26,-1.26
258.00,2.65,2.65,3.92,3.93,-3.93,-3.88,-4.57,-1.28,-1.27,-1.27
260.58,2.61,2.61,3.89,3.89,-3.89,-3.83,-4.53,-1.28,-1.28,-1.28
263.19,2.56,2.56,3.85,3.85,-3.85,-3.79,-4.48,-1.29,-1.29,-1.29
265.82,2.51,2.52,3.81,3.81,-3.81,-3.75,-4.43,-1.30,-1.30,-1.30
268.48,2.47,2.47,3.78,3.77,-3.78,-3.71,-4.37,-1.30,-1.31,-1.31
271.16,2.42,2.42,3.74,3.74,-3.74,-3.66,-4.31,-1.32,-1.32,-1.32
273.87,2.37,2.37,3.69,3.70,-3.70,-3.62,-4.25,-1.33,-1.32,-1.32
276.61,2.33,2.33,3.66,3.66,-3.66,-3.58,-4.18,-1.33,-1.33,-1.33
279.38,2.28,2.28,3.62,3.62,-3.62,-3.54,-4.11,-1.34,-1.34,-1.34
282.17,2.23,2.23,3.58,3.58,-3.58,-3.50,-4.04,-1.34,-1.34,-1.35
284.99,2.19,2.19,3.53,3.53,-3.53,-3.46,-3.96,-1.34,-1.35,-1.34
287.84,2.14,2.14,3.48,3.49,-3.49,-3.42,-3.88,-1.35,-1.35,-1.34
290.72,2.10,2.10,3.45,3.45,-3.45,-3.38,-3.81,-1.35,-1.35,-1.35
293.63,2.06,2.06,3.41,3.40,-3.40,-3.34,-3.73,-1.34,-1.35,-1.35
296.57,2.01,2.02,3.36,3.36,-3.36,-3.30,-3.65,-1.35,-1.35,-1.35
299.53,1.97,1.97,3.31,3.32,-3.32,-3.26,-3.56,-1.35,-1.35,-1.34
302.53,1.93,1.93,3.28,3.27,-3.28,-3.22,-3.48,-1.34,-1.35,-1.35
305.55,1.88,1.88,3.23,3.23,-3.23,-3.18,-3.40,-1.35,-1.35,-1.34
308.61,1.84,1.84,3.19,3.19,-3.19,-3.14,-3.32,-1.35,-1.35,-1.35
311.69,1.80,1.80,3.15,3.14,-3.14,-3.10,-3.24,-1.34,-1.35,-1.34
314.81,1.75,1.75,3.10,3.10,-3.10,-3.06,-3.16,-1.35,-1.34,-1.35
317.96,1.71,1.71,3.05,3.06,-3.06,-3.02,-3.09,-1.34,-1.34,-1.34
321.14,1.67,1.67,3.02,3.01,-3.01,-2.98,-3.01,-1.34,-1.35,-1.35
324.35,1.62,1.62,2.96,2.97,-2.97,-2.94,-2.93,-1.35,-1.34,-1.34
327.59,1.58,1.58,2.92,2.92,-2.92,-2.90,-2.86,-1.34,-1.34,-1.34
330.87,1.54,1.54,2.88,2.88,-2.88,-2.86,-2.79,-1.34,-1.34,-1.34
334.18,1.50,1.50,2.84,2.84,-2.84,-2.82,-2.71,-1.34,-1.34,-1.33
337.52,1.46,1.46,2.80,2.80,-2.79,-2.78,-2.64,-1.33,-1.33,-1.34
340.90,1.42,1.42,2.75,2.75,-2.75,-2.74,-2.58,-1.33,-1.33,-1.33
344.30,1.38,1.38,2.71,2.71,-2.71,-2.69,-2.51,-1.33,-1.33,-1.33
347.75,1.34,1.34,2.66,2.66,-2.66,-2.65,-2.45,-1.32,-1.32,-1.32
351.23,1.30,1.30,2.62,2.62,-2.62,-2.61,-2.38,-1.32,-1.32,-1.32
354.74,1.27,1.27,2.58,2.58,-2.58,-2.57,-2.32,-1.31,-1.31,-1.31
358.28,1.23,1.23,2.54,2.53,-2.53,-2.52,-2.26,-1.30,-1.31,-1.31
361.87,1.19,1.19,2.49,2.49,-2.49,-2.48,-2.20,-1.30,-1.30,-1.30
365.49,1.15,1.15,2.44,2.45,-2.45,-2.44,-2.15,-1.30,-1.30,-1.29
369.14,1.12,1.12,2.42,2.41,-2.41,-2.39,-2.09,-1.29,-1.29,-1.30
372.83,1.08,1.08,2.36,2.36,-2.36,-2.35,-2.04,-1.28,-1.28,-1.28
376.56,1.04,1.04,2.32,2.32,-2.32,-2.30,-1.99,-1.28,-1.28,-1.28
380.33,1.00,1.00,2.27,2.28,-2.28,-2.26,-1.94,-1.28,-1.28,-1.27
384.13,0.96,0.96,2.24,2.24,-2.23,-2.21,-1.89,-1.27,-1.27,-1.28
387.97,0.93,0.93,2.20,2.19,-2.19,-2.17,-1.85,-1.26,-1.26,-1.27
391.85,0.89,0.89,2.14,2.15,-2.15,-2.13,-1.80,-1.26,-1.26,-1.25
395.77,0.85,0.85,2.10,2.10,-2.10,-2.08,-1.76,-1.25,-1.25,-1.25
399.73,0.81,0.81,2.05,2.06,-2.06,-2.04,-1.72,-1.25,-1.25,-1.24
403.72,0.78,0.78,2.02,2.02,-2.02,-2.00,-1.68,-1.24,-1.24,-1.24
407.76,0.74,0.74,1.98,1.98,-1.98,-1.95,-1.64,-1.24,-1.23,-1.24
411.84,0.71,0.71,1.94,1.94,-1.93,-1.91,-1.60,-1.22,-1.23,-1.23
415.96,0.67,0.67,1.89,1.90,-1.89,-1.87,-1.56,-1.22,-1.22,-1.22
420.12,0.63,0.63,1.85,1.85,-1.85,-1.82,-1.53,-1.22,-1.22,-1.22
424.32,0.60,0.60,1.82,1.81,-1.81,-1.78,-1.49,-1.21,-1.22,-1.21
428.56,0.56,0.56,1.77,1.77,-1.77,-1.74,-1.46,-1.21,-1.21,-1.21
432.85,0.53,0.53,1.73,1.73,-1.73,-1.70,-1.43,-1.20,-1.20,-1.20
437.18,0.50,0.50,1.70,1.69,-1.69,-1.66,-1.40,-1.19,-1.19,-1.20
441.55,0.46,0.46,1.65,1.65,-1.65,-1.62,-1.37,-1.19,-1.18,-1.19
445.96,0.43,0.43,1.61,1.61,-1.60,-1.58,-1.34,-1.17,-1.18,-1.18
450.42,0.39,0.39,1.55,1.56,-1.56,-1.54,-1.31,-1.17,-1.17,-1.16
454.93,0.36,0.36,1.51,1.52,-1.52,-1.50,-1.28,-1.16,-1.16,-1.15
459.48,0.33,0.33,1.48,1.47,-1.48,-1.47,-1.25,-1.15,-1.15,-1.15
464.07,0.29,0.29,1.44,1.44,-1.44,-1.43,-1.23,-1.15,-1.14,-1.15
468.71,0.26,0.26,1.40,1.40,-1.40,-1.39,-1.20,-1.14,-1.14,-1.14
473.40,0.23,0.23,1.36,1.36,-1.36,-1.35,-1.18,-1.13,-1.13,-1.13
478.13,0.20,0.20,1.32,1.32,-1.32,-1.32,-1.15,-1.12,-1.12,-1.12
482.91,0.17,0.17,1.28,1.28,-1.28,-1.28,-1.13,-1.11,-1.11,-1.11
487.74,0.13,0.13,1.23,1.24,-1.24,-1.24,-1.10,-1.11,-1.10,-1.10
492.62,0.10,0.10,1.19,1.19,-1.19,-1.21,-1.08,-1.09,-1.09,-1.09
497.55,0.07,0.07,1.15,1.15,-1.15,-1.17,-1.06,-1.08,-1.08,-1.08
502.52,0.04,0.04,1.11,1.11,-1.11,-1.14,-1.03,-1.07,-1.07,-1.07
507.55,0.01,0.01,1.07,1.07,-1.07,-1.10,-1.01,-1.06,-1.06,-1.06
512.62,-0.02,-0.02,1.03,1.03,-1.03,-1.07,-0.99,-1.05,-1.05,-1.05
