frequency,raw
20.00,10.16
20.20,10.15
20.40,10.14
20.61,10.13
20.81,10.12
21.02,10.11
21.23,10.10
21.44,10.09
21.66,10.08
21.87,10.06
22.09,10.05
22.31,10.04
22.54,10.03
22.76,10.02
22.99,10.01
23.22,9.99
23.45,9.98
23.69,9.97
23.92,9.95
24.16,9.94
24.40,9.93
24.65,9.91
24.89,9.90
25.14,9.88
25.39,9.87
25.65,9.85
25.91,9.84
26.16,9.82
26.43,9.80
26.69,9.79
26.96,9.77
27.23,9.75
27.50,9.74
27.77,9.72
28.05,9.70
28.33,9.69
28.62,9.67
28.90,9.65
29.19,9.63
29.48,9.61
29.78,9.59
30.08,9.57
30.38,9.55
30.68,9.53
30.99,9.51
31.30,9.49
31.61,9.47
31.93,9.45
32.24,9.43
32.57,9.41
32.89,9.39
33.22,9.36
33.55,9.34
33.89,9.32
34.23,9.29
34.57,9.27
34.92,9.24
35.27,9.22
35.62,9.19
35.97,9.17
36.33,9.14
36.70,9.11
37.06,9.09
37.43,9.06
37.81,9.03
38.19,9.01
38.57,8.98
38.95,8.95
39.34,8.93
39.74,8.90
40.14,8.87
40.54,8.84
40.94,8.81
41.35,8.78
41.76,8.75
42.18,8.72
42.60,8.69
43.03,8.66
43.46,8.63
43.90,8.60
44.33,8.57
44.78,8.54
45.23,8.51
45.68,8.47
46.13,8.44
46.60,8.41
47.06,8.37
47.53,8.34
48.01,8.31
48.49,8.27
48.97,8.24
49.46,8.20
49.96,8.17
50.46,8.13
50.96,8.10
51.47,8.06
51.99,8.02
52.51,7.99
53.03,7.95
53.56,7.91
54.10,7.88
54.64,7.84
55.18,7.80
55.74,7.76
56.29,7.72
56.86,7.68
57.42,7.65
58.00,7.61
58.58,7.57
59.16,7.52
59.76,7.48
60.35,7.44
60.96,7.40
61.57,7.36
62.18,7.32
62.80,7.28
63.43,7.24
64.07,7.19
64.71,7.15
65.35,7.11
66.01,7.07
66.67,7.02
67.33,6.98
68.01,6.94
68.69,6.89
69.37,6.85
70.07,6.80
70.77,6.76
71.48,6.71
72.19,6.67
72.91,6.62
73.64,6.58
74.38,6.53
75.12,6.48
75.87,6.44
76.63,6.39
77.40,6.34
78.17,6.30
78.95,6.25
79.74,6.20
80.54,6.16
81.35,6.11
82.16,6.06
82.98,6.01
83.81,5.96
84.65,5.92
85.50,5.87
86.35,5.82
87.22,5.77
88.09,5.72
88.97,5.67
89.86,5.62
90.76,5.57
91.66,5.52
92.58,5.47
93.51,5.42
94.44,5.37
95.39,5.32
96.34,5.27
97.30,5.22
98.28,5.17
99.26,5.12
100.25,5.07
101.25,5.02
102.27,4.97
103.29,4.92
104.32,4.87
105.37,4.82
106.42,4.77
107.48,4.72
108.56,4.67
109.64,4.61
110.74,4.56
111.85,4.51
112.97,4.46
114.10,4.41
115.24,4.36
116.39,4.31
117.55,4.26
118.73,4.21
119.92,4.16
121.12,4.10
122.33,4.05
123.55,4.00
124.79,3.95
126.03,3.90
127.29,3.85
128.57,3.80
129.85,3.75
131.15,3.69
132.46,3.64
133.79,3.59
135.12,3.54
136.48,3.49
137.84,3.44
139.22,3.39
140.61,3.34
142.02,3.29
143.44,3.24
144.87,3.19
146.32,3.14
147.78,3.09
149.26,3.04
150.75,2.99
152.26,2.94
153.78,2.89
155.32,2.84
156.88,2.80
158.44,2.75
160.03,2.70
161.63,2.65
163.24,2.60
164.88,2.55
166.53,2.50
168.19,2.45
169.87,2.40
171.57,2.36
173.29,2.31
175.02,2.26
176.77,2.21
178.54,2.17
180.32,2.12
182.13,2.07
183.95,2.03
185.79,1.98
187.65,1.93
189.52,1.89
191.42,1.84
193.33,1.80
195.27,1.75
197.22,1.70
199.19,1.66
201.18,1.62
203.19,1.57
205.23,1.53
207.28,1.48
209.35,1.44
211.44,1.40
213.56,1.35
215.69,1.31
217.85,1.27
220.03,1.23
222.23,1.18
224.45,1.14
226.70,1.10
228.96,1.06
231.25,1.02
233.57,0.98
235.90,0.94
238.26,0.90
240.64,0.86
243.05,0.82
245.48,0.78
247.93,0.75
250.41,0.71
252.92,0.67
255.45,0.63
258.00,0.60
260.58,0.56
263.19,0.52
265.82,0.49
268.48,0.45
271.16,0.41
273.87,0.38
276.61,0.34
279.38,0.31
282.17,0.27
284.99,0.24
287.84,0.21
290.72,0.17
293.63,0.14
296.57,0.11
299.53,0.08
302.53,0.04
305.55,0.01
308.61,-0.02
311.69,-0.05
314.81,-0.08
317.96,-0.11
321.14,-0.14
324.35,-0.17
327.59,-0.20
330.87,-0.22
334.18,-0.25
337.52,-0.28
340.90,-0.31
344.30,-0.33
347.75,-0.36
351.23,-0.39
354.74,-0.41
358.28,-0.44
361.87,-0.46
365.49,-0.49
369.14,-0.51
372.83,-0.53
376.56,-0.56
380.33,-0.58
384.13,-0.60
387.97,-0.62
391.85,-0.65
395.77,-0.67
399.73,-0.69
403.72,-0.71
407.76,-0.73
411.84,-0.75
415.96,-0.77
420.12,-0.79
424.32,-0.81
428.56,-0.82
432.85,-0.84
437.18,-0.86
441.55,-0.87
445.96,-0.89
450.42,-0.91
454.93,-0.92
459.48,-0.94
464.07,-0.95
468.71,-0.97
473.40,-0.98
478.13,-0.99
482.91,-1.01
487.74,-1.02
492.62,-1.03
497.55,-1.04
502.52,-1.05
507.55,-1.06
512.62,-1.07
517.75,-1.08
522.93,-1.09
528.16,-1.10
533.44,-1.11
538.77,-1.11
544.16,-1.12
549.60,-1.13
555.10,-1.13
560.65,-1.14
566.25,-1.14
571.92,-1.15
577.64,-1.15
583.41,-1.15
589.25,-1.16
595.14,-1.16
601.09,-1.16
607.10,-1.16
613.17,-1.16
619.30,-1.16
625.50,-1.16
631.75,-1.16
638.07,-1.15
644.45,-1.15
650.89,-1.15
657.40,-1.14
663.98,-1.14
670.62,-1.13
677.32,-1.12
684.10,-1.12
690.94,-1.11
697.85,-1.10
704.83,-1.09
711.87,-1.08
718.99,-1.07
726.18,-1.06
733.44,-1.05
740.78,-1.04
748.19,-1.03
755.67,-1.02
763.23,-1.00
770.86,-0.99
778.57,-0.97
786.35,-0.96
794.22,-0.94
802.16,-0.92
810.18,-0.90
818.28,-0.89
826.46,-0.87
834.73,-0.84
843.08,-0.82
851.51,-0.80
860.02,-0.77
868.62,-0.74
877.31,-0.71
886.08,-0.68
894.94,-0.65
903.89,-0.61
912.93,-0.57
922.06,-0.52
931.28,-0.47
940.59,-0.42
950.00,-0.36
959.50,-0.30
969.09,-0.23
978.78,-0.16
988.57,-0.09
998.46,-0.01
1008.44,0.07
1018.53,0.15
1028.71,0.24
1039.00,0.33
1049.39,0.42
1059.88,0.51
1070.48,0.61
1081.19,0.71
1092.00,0.80
1102.92,0.90
1113.95,1.00
1125.09,1.11
1136.34,1.21
1147.70,1.31
1159.18,1.41
1170.77,1.51
1182.48,1.61
1194.30,1.71
1206.25,1.80
1218.31,1.89
1230.49,1.98
1242.80,2.07
1255.22,2.15
1267.78,2.22
1280.45,2.30
1293.26,2.37
1306.19,2.44
1319.25,2.51
1332.45,2.58
1345.77,2.65
1359.23,2.72
1372.82,2.80
1386.55,2.88
1400.41,2.96
1414.42,3.04
1428.56,3.13
1442.85,3.21
1457.28,3.29
1471.85,3.38
1486.57,3.47
1501.43,3.56
1516.45,3.65
1531.61,3.75
1546.93,3.85
1562.40,3.96
1578.02,4.08
1593.80,4.19
1609.74,4.32
1625.84,4.44
1642.10,4.57
1658.52,4.69
1675.10,4.81
1691.85,4.91
1708.77,5.01
1725.86,5.10
1743.12,5.16
1760.55,5.22
1778.15,5.26
1795.94,5.28
1813.90,5.30
1832.03,5.30
1850.36,5.31
1868.86,5.31
1887.55,5.33
1906.42,5.36
1925.49,5.40
1944.74,5.46
1964.19,5.53
1983.83,5.60
2003.67,5.68
2023.71,5.76
2043.94,5.83
2064.38,5.90
2085.03,5.96
2105.88,6.01
2126.94,6.06
2148.20,6.09
2169.69,6.12
2191.38,6.14
2213.30,6.14
2235.43,6.14
2257.78,6.11
2280.36,6.07
2303.17,6.02
2326.20,5.94
2349.46,5.85
2372.95,5.74
2396.68,5.62
2420.65,5.48
2444.86,5.35
2469.31,5.21
2494.00,5.08
2518.94,4.98
2544.13,4.89
2569.57,4.83
2595.27,4.78
2621.22,4.74
2647.43,4.71
2673.90,4.68
2700.64,4.65
2727.65,4.61
2754.93,4.56
2782.48,4.50
2810.30,4.42
2838.40,4.34
2866.79,4.24
2895.46,4.13
2924.41,4.03
2953.65,3.92
2983.19,3.84
3013.02,3.77
3043.15,3.72
3073.58,3.69
3104.32,3.68
3135.36,3.67
3166.72,3.67
3198.38,3.67
3230.37,3.67
3262.67,3.66
3295.30,3.65
3328.25,3.64
3361.53,3.63
3395.15,3.61
3429.10,3.58
3463.39,3.55
3498.03,3.52
3533.01,3.49
3568.34,3.45
3604.02,3.42
3640.06,3.39
3676.46,3.37
3713.22,3.36
3750.36,3.36
3787.86,3.37
3825.74,3.40
3864.00,3.44
3902.64,3.49
3941.66,3.54
3981.08,3.59
4020.89,3.66
4061.10,3.72
4101.71,3.80
4142.73,3.87
4184.15,3.96
4226.00,4.04
4268.26,4.11
4310.94,4.19
4354.05,4.24
4397.59,4.28
4441.56,4.30
4485.98,4.30
4530.84,4.28
4576.15,4.25
4621.91,4.22
4668.13,4.19
4714.81,4.18
4761.96,4.19
4809.58,4.20
4857.67,4.24
4906.25,4.28
4955.31,4.33
5004.87,4.40
5054.91,4.48
5105.46,4.58
5156.52,4.68
5208.08,4.79
5260.16,4.89
5312.77,4.99
5365.89,5.08
5419.55,5.15
5473.75,5.19
5528.49,5.22
5583.77,5.21
5639.61,5.17
5696.00,5.12
5752.96,5.02
5810.49,4.90
5868.60,4.74
5927.28,4.55
5986.56,4.33
6046.42,4.09
6106.89,3.83
6167.96,3.57
6229.64,3.30
6291.93,3.04
6354.85,2.80
6418.40,2.58
6482.58,2.40
6547.41,2.26
6612.88,2.14
6679.01,2.07
6745.80,2.02
6813.26,1.99
6881.39,1.98
6950.21,1.99
7019.71,2.00
7089.91,2.03
7160.81,2.09
7232.41,2.16
7304.74,2.25
7377.79,2.37
7451.56,2.53
7526.08,2.71
7601.34,2.91
7677.35,3.15
7754.13,3.40
7831.67,3.69
7909.98,3.99
7989.08,4.31
8068.98,4.63
8149.67,4.95
8231.16,5.25
8313.47,5.51
8396.61,5.73
8480.57,5.87
8565.38,5.92
8651.03,5.89
8737.54,5.78
8824.92,5.56
8913.17,5.25
9002.30,4.90
9092.32,4.45
9183.25,3.95
9275.08,3.43
9367.83,2.88
9461.51,2.34
9556.12,1.82
9651.68,1.32
9748.20,0.86
9845.68,0.45
9944.14,0.09
10043.58,-0.23
10144.02,-0.50
10245.46,-0.68
10347.91,-0.81
10451.39,-0.86
10555.91,-0.80
10661.46,-0.66
10768.08,-0.43
10875.76,-0.08
10984.52,0.38
11094.36,0.88
11205.31,1.45
11317.36,2.02
11430.53,2.56
11544.84,3.02
11660.29,3.38
11776.89,3.67
11894.66,3.69
12013.60,3.68
12133.74,3.50
12255.08,3.16
12377.63,2.73
12501.41,2.22
12626.42,1.67
12752.68,1.12
12880.21,0.63
13009.01,0.17
13139.10,-0.28
13270.49,-0.62
13403.20,-0.91
13537.23,-1.12
13672.60,-1.28
13809.33,-1.40
13947.42,-1.48
14086.90,-1.55
14227.77,-1.62
14370.04,-1.71
14513.74,-1.83
14658.88,-2.00
14805.47,-2.21
14953.52,-2.48
15103.06,-2.82
15254.09,-3.20
15406.63,-3.67
15560.70,-4.18
15716.30,-4.74
15873.47,-5.36
16032.20,-6.01
16192.52,-6.72
16354.45,-7.47
16517.99,-8.27
16683.17,-9.17
16850.01,-10.17
17018.51,-11.26
17188.69,-12.54
17360.58,-13.93
17534.18,-15.39
17709.53,-16.88
17886.62,-18.07
18065.49,-18.86
18246.14,-19.13
18428.60,-18.59
18612.89,-17.81
18799.02,-16.92
18987.01,-16.10
19176.88,-15.53
19368.65,-15.17
19562.33,-15.05
19757.96,-15.16
19955.54,-15.55
