frequency,raw
20.00,1.17
20.20,1.21
20.40,1.26
20.61,1.30
20.81,1.34
21.02,1.39
21.23,1.43
21.44,1.47
21.66,1.51
21.87,1.55
22.09,1.58
22.31,1.61
22.54,1.65
22.76,1.68
22.99,1.71
23.22,1.74
23.45,1.78
23.69,1.81
23.92,1.84
24.16,1.88
24.40,1.91
24.65,1.94
24.89,1.97
25.14,2.00
25.39,2.03
25.65,2.06
25.91,2.09
26.16,2.13
26.43,2.16
26.69,2.20
26.96,2.23
27.23,2.26
27.50,2.28
27.77,2.30
28.05,2.32
28.33,2.35
28.62,2.37
28.90,2.40
29.19,2.43
29.48,2.45
29.78,2.48
30.08,2.51
30.38,2.54
30.68,2.56
30.99,2.59
31.30,2.61
31.61,2.63
31.93,2.66
32.24,2.68
32.57,2.71
32.89,2.73
33.22,2.75
33.55,2.77
33.89,2.79
34.23,2.81
34.57,2.83
34.92,2.85
35.27,2.87
35.62,2.89
35.97,2.92
36.33,2.94
36.70,2.96
37.06,2.97
37.43,2.98
37.81,3.00
38.19,3.01
38.57,3.03
38.95,3.04
39.34,3.06
39.74,3.08
40.14,3.09
40.54,3.11
40.94,3.12
41.35,3.14
41.76,3.15
42.18,3.17
42.60,3.18
43.03,3.20
43.46,3.21
43.90,3.22
44.33,3.23
44.78,3.24
45.23,3.25
45.68,3.27
46.13,3.28
46.60,3.29
47.06,3.30
47.53,3.31
48.01,3.32
48.49,3.33
48.97,3.34
49.46,3.35
49.96,3.36
50.46,3.37
50.96,3.38
51.47,3.39
51.99,3.40
52.51,3.41
53.03,3.41
53.56,3.42
54.10,3.43
54.64,3.44
55.18,3.44
55.74,3.45
56.29,3.46
56.86,3.47
57.42,3.47
58.00,3.48
58.58,3.49
59.16,3.49
59.76,3.50
60.35,3.51
60.96,3.51
61.57,3.52
62.18,3.52
62.80,3.53
63.43,3.53
64.07,3.54
64.71,3.54
65.35,3.55
66.01,3.55
66.67,3.56
67.33,3.56
68.01,3.56
68.69,3.57
69.37,3.57
70.07,3.57
70.77,3.57
71.48,3.57
72.19,3.58
72.91,3.58
73.64,3.58
74.38,3.58
75.12,3.59
75.87,3.59
76.63,3.59
77.40,3.59
78.17,3.59
78.95,3.59
79.74,3.59
80.54,3.59
81.35,3.59
82.16,3.59
82.98,3.59
83.81,3.59
84.65,3.59
85.50,3.59
86.35,3.59
87.22,3.59
88.09,3.59
88.97,3.59
89.86,3.59
90.76,3.59
91.66,3.59
92.58,3.58
93.51,3.58
94.44,3.58
95.39,3.58
96.34,3.57
97.30,3.57
98.28,3.56
99.26,3.55
100.25,3.55
101.25,3.55
102.27,3.54
103.29,3.54
104.32,3.54
105.37,3.54
106.42,3.53
107.48,3.53
108.56,3.52
109.64,3.52
110.74,3.51
111.85,3.51
112.97,3.50
114.10,3.50
115.24,3.49
116.39,3.48
117.55,3.48
118.73,3.47
119.92,3.46
121.12,3.45
122.33,3.45
123.55,3.44
124.79,3.43
126.03,3.42
127.29,3.41
128.57,3.40
129.85,3.39
131.15,3.38
132.46,3.37
133.79,3.37
135.12,3.36
136.48,3.35
137.84,3.34
139.22,3.33
140.61,3.32
142.02,3.31
143.44,3.30
144.87,3.29
146.32,3.28
147.78,3.27
149.26,3.25
150.75,3.24
152.26,3.23
153.78,3.22
155.32,3.20
156.88,3.19
158.44,3.18
160.03,3.16
161.63,3.15
163.24,3.14
164.88,3.13
166.53,3.11
168.19,3.10
169.87,3.08
171.57,3.07
173.29,3.05
175.02,3.04
176.77,3.02
178.54,3.01
180.32,2.99
182.13,2.98
183.95,2.96
185.79,2.94
187.65,2.93
189.52,2.91
191.42,2.89
193.33,2.87
195.27,2.85
197.22,2.84
199.19,2.82
201.18,2.80
203.19,2.78
205.23,2.76
207.28,2.74
209.35,2.72
211.44,2.70
213.56,2.68
215.69,2.66
217.85,2.64
220.03,2.62
222.23,2.60
224.45,2.58
226.70,2.56
228.96,2.53
231.25,2.51
233.57,2.49
235.90,2.46
238.26,2.44
240.64,2.41
243.05,2.39
245.48,2.37
247.93,2.35
250.41,2.33
252.92,2.30
255.45,2.28
258.00,2.25
260.58,2.23
263.19,2.20
265.82,2.18
268.48,2.15
271.16,2.12
273.87,2.10
276.61,2.07
279.38,2.05
282.17,2.02
284.99,1.99
287.84,1.97
290.72,1.94
293.63,1.91
296.57,1.88
299.53,1.86
302.53,1.83
305.55,1.80
308.61,1.77
311.69,1.74
314.81,1.71
317.96,1.68
321.14,1.65
324.35,1.62
327.59,1.59
330.87,1.56
334.18,1.53
337.52,1.50
340.90,1.47
344.30,1.44
347.75,1.41
351.23,1.39
354.74,1.36
358.28,1.33
361.87,1.30
365.49,1.26
369.14,1.23
372.83,1.20
376.56,1.17
380.33,1.14
384.13,1.11
387.97,1.08
391.85,1.05
395.77,1.02
399.73,0.99
403.72,0.96
407.76,0.92
411.84,0.89
415.96,0.86
420.12,0.83
424.32,0.80
428.56,0.77
432.85,0.74
437.18,0.71
441.55,0.68
445.96,0.64
450.42,0.61
454.93,0.58
459.48,0.55
464.07,0.52
468.71,0.49
473.40,0.45
478.13,0.42
482.91,0.39
487.74,0.36
492.62,0.33
497.55,0.30
502.52,0.27
507.55,0.24
512.62,0.21
517.75,0.18
522.93,0.15
528.16,0.12
533.44,0.09
538.77,0.06
544.16,0.03
549.60,0.00
555.10,-0.03
560.65,-0.06
566.25,-0.09
571.92,-0.11
577.64,-0.14
583.41,-0.17
589.25,-0.20
595.14,-0.22
601.09,-0.25
607.10,-0.28
613.17,-0.30
619.30,-0.32
625.50,-0.35
631.75,-0.37
638.07,-0.40
644.45,-0.42
650.89,-0.44
657.40,-0.47
663.98,-0.49
670.62,-0.51
677.32,-0.53
684.10,-0.55
690.94,-0.57
697.85,-0.59
704.83,-0.60
711.87,-0.62
718.99,-0.63
726.18,-0.65
733.44,-0.66
740.78,-0.67
748.19,-0.67
755.67,-0.68
763.23,-0.68
770.86,-0.68
778.57,-0.68
786.35,-0.69
794.22,-0.69
802.16,-0.69
810.18,-0.69
818.28,-0.70
826.46,-0.70
834.73,-0.70
843.08,-0.69
851.51,-0.68
860.02,-0.67
868.62,-0.65
877.31,-0.63
886.08,-0.60
894.94,-0.57
903.89,-0.54
912.93,-0.50
922.06,-0.46
931.28,-0.42
940.59,-0.37
950.00,-0.32
959.50,-0.27
969.09,-0.21
978.78,-0.15
988.57,-0.08
998.46,-0.01
1008.44,0.06
1018.53,0.14
1028.71,0.22
1039.00,0.30
1049.39,0.38
1059.88,0.47
1070.48,0.56
1081.19,0.66
1092.00,0.75
1102.92,0.85
1113.95,0.95
1125.09,1.05
1136.34,1.15
1147.70,1.25
1159.18,1.36
1170.77,1.46
1182.48,1.57
1194.30,1.67
1206.25,1.78
1218.31,1.88
1230.49,1.99
1242.80,2.09
1255.22,2.19
1267.78,2.29
1280.45,2.40
1293.26,2.50
1306.19,2.60
1319.25,2.70
1332.45,2.80
1345.77,2.90
1359.23,3.00
1372.82,3.10
1386.55,3.20
1400.41,3.29
1414.42,3.39
1428.56,3.49
1442.85,3.59
1457.28,3.69
1471.85,3.79
1486.57,3.90
1501.43,4.00
1516.45,4.11
1531.61,4.22
1546.93,4.32
1562.40,4.44
1578.02,4.55
1593.80,4.67
1609.74,4.79
1625.84,4.92
1642.10,5.04
1658.52,5.17
1675.10,5.31
1691.85,5.44
1708.77,5.58
1725.86,5.72
1743.12,5.87
1760.55,6.01
1778.15,6.15
1795.94,6.28
1813.90,6.41
1832.03,6.54
1850.36,6.66
1868.86,6.76
1887.55,6.86
1906.42,6.94
1925.49,7.01
1944.74,7.07
1964.19,7.11
1983.83,7.14
2003.67,7.16
2023.71,7.17
2043.94,7.16
2064.38,7.15
2085.03,7.12
2105.88,7.09
2126.94,7.04
2148.20,6.99
2169.69,6.92
2191.38,6.86
2213.30,6.78
2235.43,6.70
2257.78,6.61
2280.36,6.52
2303.17,6.42
2326.20,6.32
2349.46,6.21
2372.95,6.10
2396.68,5.99
2420.65,5.88
2444.86,5.76
2469.31,5.65
2494.00,5.53
2518.94,5.41
2544.13,5.29
2569.57,5.18
2595.27,5.06
2621.22,4.94
2647.43,4.83
2673.90,4.72
2700.64,4.61
2727.65,4.50
2754.93,4.40
2782.48,4.30
2810.30,4.20
2838.40,4.11
2866.79,4.02
2895.46,3.94
2924.41,3.86
2953.65,3.78
2983.19,3.71
3013.02,3.64
3043.15,3.58
3073.58,3.52
3104.32,3.47
3135.36,3.43
3166.72,3.39
3198.38,3.35
3230.37,3.33
3262.67,3.31
3295.30,3.29
3328.25,3.28
3361.53,3.28
3395.15,3.28
3429.10,3.29
3463.39,3.31
3498.03,3.33
3533.01,3.36
3568.34,3.40
3604.02,3.44
3640.06,3.50
3676.46,3.56
3713.22,3.62
3750.36,3.70
3787.86,3.78
3825.74,3.87
3864.00,3.97
3902.64,4.08
3941.66,4.20
3981.08,4.32
4020.89,4.45
4061.10,4.59
4101.71,4.74
4142.73,4.89
4184.15,5.04
4226.00,5.19
4268.26,5.35
4310.94,5.50
4354.05,5.65
4397.59,5.78
4441.56,5.90
4485.98,6.00
4530.84,6.08
4576.15,6.13
4621.91,6.15
4668.13,6.13
4714.81,6.06
4761.96,5.97
4809.58,5.83
4857.67,5.65
4906.25,5.42
4955.31,5.17
5004.87,4.89
5054.91,4.58
5105.46,4.26
5156.52,3.93
5208.08,3.59
5260.16,3.26
5312.77,2.93
5365.89,2.61
5419.55,2.31
5473.75,2.02
5528.49,1.76
5583.77,1.51
5639.61,1.30
5696.00,1.09
5752.96,0.91
5810.49,0.75
5868.60,0.60
5927.28,0.47
5986.56,0.35
6046.42,0.23
6106.89,0.12
6167.96,0.02
6229.64,-0.09
6291.93,-0.20
6354.85,-0.31
6418.40,-0.42
6482.58,-0.54
6547.41,-0.66
6612.88,-0.78
6679.01,-0.90
6745.80,-1.02
6813.26,-1.13
6881.39,-1.24
6950.21,-1.33
7019.71,-1.40
7089.91,-1.47
7160.81,-1.51
7232.41,-1.53
7304.74,-1.54
7377.79,-1.52
7451.56,-1.48
7526.08,-1.42
7601.34,-1.32
7677.35,-1.19
7754.13,-1.04
7831.67,-0.84
7909.98,-0.61
7989.08,-0.33
8068.98,-0.00
8149.67,0.36
8231.16,0.77
8313.47,1.22
8396.61,1.69
8480.57,2.19
8565.38,2.69
8651.03,3.17
8737.54,3.62
8824.92,3.97
8913.17,4.20
9002.30,4.37
9092.32,4.33
9183.25,4.16
9275.08,3.87
9367.83,3.45
9461.51,2.92
9556.12,2.34
9651.68,1.72
9748.20,1.10
9845.68,0.50
9944.14,-0.05
10043.58,-0.56
10144.02,-1.02
10245.46,-1.38
10347.91,-1.71
10451.39,-1.97
10555.91,-2.16
10661.46,-2.30
10768.08,-2.38
10875.76,-2.40
10984.52,-2.34
11094.36,-2.23
11205.31,-2.04
11317.36,-1.75
11430.53,-1.42
11544.84,-1.01
11660.29,-0.54
11776.89,-0.05
11894.66,0.43
12013.60,0.90
12133.74,1.28
12255.08,1.49
12377.63,1.55
12501.41,1.40
12626.42,0.94
12752.68,0.25
12880.21,-0.71
13009.01,-1.79
13139.10,-2.86
13270.49,-4.07
13403.20,-5.29
13537.23,-6.45
13672.60,-7.54
13809.33,-8.56
13947.42,-9.45
14086.90,-10.23
14227.77,-10.94
14370.04,-11.59
14513.74,-12.17
14658.88,-12.68
14805.47,-13.16
14953.52,-13.60
15103.06,-13.94
15254.09,-14.24
15406.63,-14.33
15560.70,-14.34
15716.30,-14.21
15873.47,-13.93
16032.20,-13.58
16192.52,-13.11
16354.45,-12.58
16517.99,-12.01
16683.17,-11.41
16850.01,-10.83
17018.51,-10.28
17188.69,-9.84
17360.58,-9.51
17534.18,-9.30
17709.53,-9.26
17886.62,-9.37
18065.49,-9.58
18246.14,-9.89
18428.60,-10.29
18612.89,-10.72
18799.02,-11.19
18987.01,-11.70
19176.88,-12.30
19368.65,-13.00
19562.33,-13.86
19757.96,-14.89
19955.54,-16.21
