frequency,raw
20.00,9.77
20.20,9.76
20.40,9.75
20.61,9.74
20.81,9.73
21.02,9.72
21.23,9.70
21.44,9.69
21.66,9.68
21.87,9.67
22.09,9.65
22.31,9.64
22.54,9.63
22.76,9.62
22.99,9.61
23.22,9.59
23.45,9.58
23.69,9.56
23.92,9.55
24.16,9.53
24.40,9.52
24.65,9.50
24.89,9.48
25.14,9.47
25.39,9.45
25.65,9.44
25.91,9.42
26.16,9.40
26.43,9.39
26.69,9.37
26.96,9.35
27.23,9.33
27.50,9.32
27.77,9.30
28.05,9.28
28.33,9.26
28.62,9.24
28.90,9.22
29.19,9.20
29.48,9.18
29.78,9.16
30.08,9.14
30.38,9.12
30.68,9.10
30.99,9.08
31.30,9.06
31.61,9.04
31.93,9.01
32.24,8.99
32.57,8.97
32.89,8.94
33.22,8.92
33.55,8.89
33.89,8.86
34.23,8.84
34.57,8.82
34.92,8.79
35.27,8.77
35.62,8.74
35.97,8.71
36.33,8.68
36.70,8.64
37.06,8.61
37.43,8.59
37.81,8.56
38.19,8.54
38.57,8.52
38.95,8.49
39.34,8.46
39.74,8.43
40.14,8.40
40.54,8.37
40.94,8.34
41.35,8.31
41.76,8.29
42.18,8.26
42.60,8.22
43.03,8.19
43.46,8.16
43.90,8.13
44.33,8.10
44.78,8.07
45.23,8.04
45.68,8.01
46.13,7.99
46.60,7.95
47.06,7.92
47.53,7.89
48.01,7.86
48.49,7.82
48.97,7.79
49.46,7.75
49.96,7.72
50.46,7.68
50.96,7.64
51.47,7.61
51.99,7.57
52.51,7.53
53.03,7.49
53.56,7.45
54.10,7.41
54.64,7.37
55.18,7.33
55.74,7.29
56.29,7.26
56.86,7.22
57.42,7.18
58.00,7.14
58.58,7.10
59.16,7.06
59.76,7.02
60.35,6.98
60.96,6.94
61.57,6.90
62.18,6.86
62.80,6.82
63.43,6.78
64.07,6.74
64.71,6.69
65.35,6.65
66.01,6.61
66.67,6.57
67.33,6.52
68.01,6.48
68.69,6.44
69.37,6.39
70.07,6.35
70.77,6.31
71.48,6.26
72.19,6.22
72.91,6.17
73.64,6.13
74.38,6.08
75.12,6.04
75.87,5.99
76.63,5.95
77.40,5.90
78.17,5.86
78.95,5.81
79.74,5.77
80.54,5.72
81.35,5.67
82.16,5.63
82.98,5.58
83.81,5.54
84.65,5.49
85.50,5.44
86.35,5.39
87.22,5.35
88.09,5.30
88.97,5.25
89.86,5.20
90.76,5.15
91.66,5.10
92.58,5.06
93.51,5.01
94.44,4.96
95.39,4.91
96.34,4.86
97.30,4.81
98.28,4.76
99.26,4.71
100.25,4.66
101.25,4.62
102.27,4.57
103.29,4.52
104.32,4.47
105.37,4.42
106.42,4.37
107.48,4.33
108.56,4.28
109.64,4.23
110.74,4.18
111.85,4.13
112.97,4.08
114.10,4.03
115.24,3.98
116.39,3.93
117.55,3.88
118.73,3.83
119.92,3.78
121.12,3.73
122.33,3.68
123.55,3.63
124.79,3.59
126.03,3.54
127.29,3.49
128.57,3.44
129.85,3.39
131.15,3.34
132.46,3.29
133.79,3.24
135.12,3.20
136.48,3.15
137.84,3.10
139.22,3.05
140.61,3.00
142.02,2.95
143.44,2.91
144.87,2.86
146.32,2.81
147.78,2.76
149.26,2.71
150.75,2.67
152.26,2.62
153.78,2.57
155.32,2.52
156.88,2.48
158.44,2.43
160.03,2.38
161.63,2.34
163.24,2.29
164.88,2.25
166.53,2.20
168.19,2.15
169.87,2.11
171.57,2.06
173.29,2.02
175.02,1.97
176.77,1.92
178.54,1.88
180.32,1.84
182.13,1.79
183.95,1.75
185.79,1.70
187.65,1.66
189.52,1.62
191.42,1.57
193.33,1.53
195.27,1.49
197.22,1.44
199.19,1.40
201.18,1.36
203.19,1.32
205.23,1.28
207.28,1.24
209.35,1.20
211.44,1.16
213.56,1.12
215.69,1.08
217.85,1.03
220.03,0.99
222.23,0.96
224.45,0.92
226.70,0.88
228.96,0.84
231.25,0.80
233.57,0.76
235.90,0.72
238.26,0.69
240.64,0.65
243.05,0.61
245.48,0.58
247.93,0.54
250.41,0.50
252.92,0.47
255.45,0.43
258.00,0.40
260.58,0.36
263.19,0.33
265.82,0.30
268.48,0.26
271.16,0.23
273.87,0.20
276.61,0.16
279.38,0.13
282.17,0.10
284.99,0.07
287.84,0.03
290.72,0.00
293.63,-0.03
296.57,-0.06
299.53,-0.09
302.53,-0.12
305.55,-0.15
308.61,-0.18
311.69,-0.21
314.81,-0.24
317.96,-0.26
321.14,-0.29
324.35,-0.32
327.59,-0.34
330.87,-0.37
334.18,-0.40
337.52,-0.42
340.90,-0.45
344.30,-0.47
347.75,-0.50
351.23,-0.52
354.74,-0.55
358.28,-0.57
361.87,-0.60
365.49,-0.62
369.14,-0.64
372.83,-0.66
376.56,-0.69
380.33,-0.71
384.13,-0.73
387.97,-0.75
391.85,-0.77
395.77,-0.79
399.73,-0.81
403.72,-0.83
407.76,-0.85
411.84,-0.87
415.96,-0.89
420.12,-0.91
424.32,-0.93
428.56,-0.95
432.85,-0.96
437.18,-0.98
441.55,-1.00
445.96,-1.01
450.42,-1.03
454.93,-1.04
459.48,-1.06
464.07,-1.07
468.71,-1.09
473.40,-1.10
478.13,-1.12
482.91,-1.13
487.74,-1.14
492.62,-1.16
497.55,-1.17
502.52,-1.18
507.55,-1.19
512.62,-1.21
517.75,-1.22
522.93,-1.23
528.16,-1.24
533.44,-1.25
538.77,-1.26
544.16,-1.27
549.60,-1.28
555.10,-1.29
560.65,-1.29
566.25,-1.30
571.92,-1.31
577.64,-1.32
583.41,-1.32
589.25,-1.33
595.14,-1.33
601.09,-1.34
607.10,-1.34
613.17,-1.35
619.30,-1.35
625.50,-1.35
631.75,-1.36
638.07,-1.36
644.45,-1.36
650.89,-1.36
657.40,-1.36
663.98,-1.36
670.62,-1.36
677.32,-1.35
684.10,-1.35
690.94,-1.35
697.85,-1.34
704.83,-1.33
711.87,-1.33
718.99,-1.32
726.18,-1.31
733.44,-1.30
740.78,-1.28
748.19,-1.27
755.67,-1.25
763.23,-1.24
770.86,-1.22
778.57,-1.20
786.35,-1.17
794.22,-1.15
802.16,-1.13
810.18,-1.10
818.28,-1.07
826.46,-1.04
834.73,-1.01
843.08,-0.98
851.51,-0.94
860.02,-0.90
868.62,-0.86
877.31,-0.82
886.08,-0.77
894.94,-0.72
903.89,-0.67
912.93,-0.62
922.06,-0.56
931.28,-0.50
940.59,-0.44
950.00,-0.38
959.50,-0.31
969.09,-0.24
978.78,-0.17
988.57,-0.09
998.46,-0.01
1008.44,0.07
1018.53,0.15
1028.71,0.24
1039.00,0.33
1049.39,0.42
1059.88,0.51
1070.48,0.60
1081.19,0.69
1092.00,0.79
1102.92,0.89
1113.95,0.98
1125.09,1.08
1136.34,1.18
1147.70,1.28
1159.18,1.37
1170.77,1.47
1182.48,1.57
1194.30,1.66
1206.25,1.75
1218.31,1.85
1230.49,1.94
1242.80,2.02
1255.22,2.11
1267.78,2.20
1280.45,2.28
1293.26,2.36
1306.19,2.44
1319.25,2.52
1332.45,2.60
1345.77,2.67
1359.23,2.75
1372.82,2.82
1386.55,2.89
1400.41,2.95
1414.42,3.02
1428.56,3.09
1442.85,3.15
1457.28,3.21
1471.85,3.27
1486.57,3.33
1501.43,3.39
1516.45,3.45
1531.61,3.50
1546.93,3.55
1562.40,3.61
1578.02,3.66
1593.80,3.71
1609.74,3.76
1625.84,3.81
1642.10,3.85
1658.52,3.90
1675.10,3.94
1691.85,3.98
1708.77,4.02
1725.86,4.06
1743.12,4.10
1760.55,4.14
1778.15,4.17
1795.94,4.20
1813.90,4.24
1832.03,4.27
1850.36,4.29
1868.86,4.32
1887.55,4.34
1906.42,4.37
1925.49,4.39
1944.74,4.41
1964.19,4.43
1983.83,4.44
2003.67,4.46
2023.71,4.47
2043.94,4.48
2064.38,4.49
2085.03,4.50
2105.88,4.50
2126.94,4.50
2148.20,4.50
2169.69,4.50
2191.38,4.50
2213.30,4.49
2235.43,4.49
2257.78,4.48
2280.36,4.47
2303.17,4.46
2326.20,4.45
2349.46,4.43
2372.95,4.42
2396.68,4.41
2420.65,4.40
2444.86,4.39
2469.31,4.38
2494.00,4.37
2518.94,4.37
2544.13,4.37
2569.57,4.37
2595.27,4.37
2621.22,4.38
2647.43,4.39
2673.90,4.40
2700.64,4.42
2727.65,4.44
2754.93,4.47
2782.48,4.50
2810.30,4.55
2838.40,4.60
2866.79,4.67
2895.46,4.75
2924.41,4.84
2953.65,4.95
2983.19,5.07
3013.02,5.20
3043.15,5.34
3073.58,5.50
3104.32,5.66
3135.36,5.82
3166.72,5.98
3198.38,6.14
3230.37,6.29
3262.67,6.43
3295.30,6.57
3328.25,6.69
3361.53,6.80
3395.15,6.90
3429.10,6.98
3463.39,7.05
3498.03,7.10
3533.01,7.13
3568.34,7.15
3604.02,7.15
3640.06,7.13
3676.46,7.10
3713.22,7.05
3750.36,6.98
3787.86,6.89
3825.74,6.80
3864.00,6.69
3902.64,6.56
3941.66,6.43
3981.08,6.28
4020.89,6.11
4061.10,5.94
4101.71,5.75
4142.73,5.56
4184.15,5.36
4226.00,5.15
4268.26,4.94
4310.94,4.72
4354.05,4.50
4397.59,4.28
4441.56,4.06
4485.98,3.84
4530.84,3.64
4576.15,3.47
4621.91,3.31
4668.13,3.20
4714.81,3.17
4761.96,3.19
4809.58,3.29
4857.67,3.46
4906.25,3.69
4955.31,3.92
5004.87,4.14
5054.91,4.29
5105.46,4.40
5156.52,4.44
5208.08,4.40
5260.16,4.32
5312.77,4.21
5365.89,4.07
5419.55,3.93
5473.75,3.79
5528.49,3.67
5583.77,3.56
5639.61,3.48
5696.00,3.41
5752.96,3.37
5810.49,3.35
5868.60,3.36
5927.28,3.40
5986.56,3.45
6046.42,3.54
6106.89,3.64
6167.96,3.76
6229.64,3.90
6291.93,4.05
6354.85,4.20
6418.40,4.35
6482.58,4.50
6547.41,4.62
6612.88,4.73
6679.01,4.79
6745.80,4.80
6813.26,4.77
6881.39,4.67
6950.21,4.50
7019.71,4.29
7089.91,4.02
7160.81,3.69
7232.41,3.33
7304.74,2.95
7377.79,2.56
7451.56,2.17
7526.08,1.79
7601.34,1.43
7677.35,1.11
7754.13,0.81
7831.67,0.58
7909.98,0.38
7989.08,0.22
8068.98,0.12
8149.67,0.05
8231.16,0.02
8313.47,0.02
8396.61,0.04
8480.57,0.09
8565.38,0.15
8651.03,0.21
8737.54,0.28
8824.92,0.34
8913.17,0.38
9002.30,0.42
9092.32,0.42
9183.25,0.38
9275.08,0.32
9367.83,0.22
9461.51,0.07
9556.12,-0.09
9651.68,-0.27
9748.20,-0.45
9845.68,-0.61
9944.14,-0.74
10043.58,-0.84
10144.02,-0.91
10245.46,-0.93
10347.91,-0.91
10451.39,-0.85
10555.91,-0.76
10661.46,-0.65
10768.08,-0.53
10875.76,-0.40
10984.52,-0.28
11094.36,-0.17
11205.31,-0.07
11317.36,0.02
11430.53,0.11
11544.84,0.21
11660.29,0.34
11776.89,0.48
11894.66,0.67
12013.60,0.86
12133.74,1.05
12255.08,1.20
12377.63,1.31
12501.41,1.30
12626.42,1.11
12752.68,0.77
12880.21,0.27
13009.01,-0.32
13139.10,-0.90
13270.49,-1.56
13403.20,-2.23
13537.23,-2.86
13672.60,-3.47
13809.33,-4.06
13947.42,-4.59
14086.90,-5.10
14227.77,-5.59
14370.04,-6.07
14513.74,-6.55
14658.88,-7.04
14805.47,-7.52
14953.52,-8.01
15103.06,-8.50
15254.09,-9.00
15406.63,-9.50
15560.70,-10.00
15716.30,-10.51
15873.47,-11.01
16032.20,-11.51
16192.52,-11.97
16354.45,-12.37
16517.99,-12.72
16683.17,-12.96
16850.01,-13.16
17018.51,-13.35
17188.69,-13.57
17360.58,-13.77
17534.18,-13.95
17709.53,-14.04
17886.62,-14.06
18065.49,-14.07
18246.14,-14.11
18428.60,-14.32
18612.89,-14.64
18799.02,-15.08
18987.01,-15.63
19176.88,-16.32
19368.65,-17.13
19562.33,-18.05
19757.96,-19.07
19955.54,-20.18
