frequency,raw
20.00,8.41
20.20,8.40
20.40,8.39
20.61,8.38
20.81,8.37
21.02,8.36
21.23,8.34
21.44,8.33
21.66,8.32
21.87,8.30
22.09,8.29
22.31,8.27
22.54,8.26
22.76,8.24
22.99,8.23
23.22,8.22
23.45,8.21
23.69,8.20
23.92,8.18
24.16,8.17
24.40,8.16
24.65,8.14
24.89,8.13
25.14,8.11
25.39,8.09
25.65,8.07
25.91,8.05
26.16,8.03
26.43,8.02
26.69,8.00
26.96,7.98
27.23,7.96
27.50,7.94
27.77,7.92
28.05,7.90
28.33,7.88
28.62,7.86
28.90,7.84
29.19,7.82
29.48,7.80
29.78,7.77
30.08,7.75
30.38,7.73
30.68,7.71
30.99,7.68
31.30,7.66
31.61,7.63
31.93,7.61
32.24,7.58
32.57,7.56
32.89,7.53
33.22,7.51
33.55,7.48
33.89,7.46
34.23,7.43
34.57,7.40
34.92,7.37
35.27,7.35
35.62,7.32
35.97,7.29
36.33,7.26
36.70,7.23
37.06,7.21
37.43,7.18
37.81,7.15
38.19,7.12
38.57,7.09
38.95,7.06
39.34,7.03
39.74,7.00
40.14,6.96
40.54,6.93
40.94,6.90
41.35,6.86
41.76,6.82
42.18,6.78
42.60,6.75
43.03,6.71
43.46,6.68
43.90,6.65
44.33,6.62
44.78,6.59
45.23,6.55
45.68,6.52
46.13,6.48
46.60,6.44
47.06,6.41
47.53,6.37
48.01,6.33
48.49,6.29
48.97,6.26
49.46,6.22
49.96,6.18
50.46,6.14
50.96,6.10
51.47,6.06
51.99,6.02
52.51,5.98
53.03,5.94
53.56,5.89
54.10,5.85
54.64,5.81
55.18,5.76
55.74,5.72
56.29,5.68
56.86,5.63
57.42,5.59
58.00,5.54
58.58,5.50
59.16,5.46
59.76,5.41
60.35,5.37
60.96,5.32
61.57,5.28
62.18,5.23
62.80,5.18
63.43,5.14
64.07,5.09
64.71,5.04
65.35,4.99
66.01,4.95
66.67,4.90
67.33,4.85
68.01,4.80
68.69,4.75
69.37,4.71
70.07,4.66
70.77,4.61
71.48,4.56
72.19,4.51
72.91,4.45
73.64,4.40
74.38,4.35
75.12,4.30
75.87,4.25
76.63,4.20
77.40,4.15
78.17,4.09
78.95,4.04
79.74,3.99
80.54,3.94
81.35,3.88
82.16,3.83
82.98,3.77
83.81,3.72
84.65,3.67
85.50,3.61
86.35,3.56
87.22,3.50
88.09,3.45
88.97,3.40
89.86,3.34
90.76,3.29
91.66,3.23
92.58,3.18
93.51,3.12
94.44,3.07
95.39,3.01
96.34,2.96
97.30,2.90
98.28,2.84
99.26,2.79
100.25,2.73
101.25,2.67
102.27,2.61
103.29,2.56
104.32,2.50
105.37,2.44
106.42,2.39
107.48,2.33
108.56,2.27
109.64,2.22
110.74,2.16
111.85,2.11
112.97,2.05
114.10,2.00
115.24,1.94
116.39,1.88
117.55,1.83
118.73,1.77
119.92,1.71
121.12,1.66
122.33,1.60
123.55,1.54
124.79,1.49
126.03,1.43
127.29,1.38
128.57,1.32
129.85,1.26
131.15,1.21
132.46,1.15
133.79,1.10
135.12,1.04
136.48,0.99
137.84,0.93
139.22,0.88
140.61,0.82
142.02,0.77
143.44,0.72
144.87,0.66
146.32,0.61
147.78,0.56
149.26,0.50
150.75,0.45
152.26,0.40
153.78,0.35
155.32,0.30
156.88,0.24
158.44,0.19
160.03,0.14
161.63,0.09
163.24,0.04
164.88,-0.01
166.53,-0.05
168.19,-0.10
169.87,-0.15
171.57,-0.20
173.29,-0.25
175.02,-0.30
176.77,-0.34
178.54,-0.39
180.32,-0.44
182.13,-0.48
183.95,-0.53
185.79,-0.57
187.65,-0.61
189.52,-0.66
191.42,-0.70
193.33,-0.74
195.27,-0.78
197.22,-0.82
199.19,-0.86
201.18,-0.90
203.19,-0.94
205.23,-0.98
207.28,-1.02
209.35,-1.05
211.44,-1.09
213.56,-1.13
215.69,-1.16
217.85,-1.20
220.03,-1.23
222.23,-1.27
224.45,-1.30
226.70,-1.33
228.96,-1.36
231.25,-1.39
233.57,-1.43
235.90,-1.46
238.26,-1.48
240.64,-1.51
243.05,-1.54
245.48,-1.57
247.93,-1.59
250.41,-1.62
252.92,-1.65
255.45,-1.67
258.00,-1.69
260.58,-1.72
263.19,-1.74
265.82,-1.76
268.48,-1.78
271.16,-1.80
273.87,-1.82
276.61,-1.84
279.38,-1.86
282.17,-1.88
284.99,-1.89
287.84,-1.91
290.72,-1.92
293.63,-1.93
296.57,-1.95
299.53,-1.96
302.53,-1.97
305.55,-1.98
308.61,-1.99
311.69,-2.00
314.81,-2.01
317.96,-2.02
321.14,-2.02
324.35,-2.03
327.59,-2.04
330.87,-2.04
334.18,-2.05
337.52,-2.05
340.90,-2.06
344.30,-2.06
347.75,-2.06
351.23,-2.06
354.74,-2.07
358.28,-2.07
361.87,-2.07
365.49,-2.07
369.14,-2.07
372.83,-2.07
376.56,-2.06
380.33,-2.06
384.13,-2.06
387.97,-2.06
391.85,-2.06
395.77,-2.05
399.73,-2.05
403.72,-2.04
407.76,-2.04
411.84,-2.03
415.96,-2.03
420.12,-2.02
424.32,-2.02
428.56,-2.01
432.85,-2.00
437.18,-2.00
441.55,-1.99
445.96,-1.98
450.42,-1.97
454.93,-1.96
459.48,-1.96
464.07,-1.95
468.71,-1.94
473.40,-1.94
478.13,-1.94
482.91,-1.94
487.74,-1.94
492.62,-1.94
497.55,-1.94
502.52,-1.94
507.55,-1.94
512.62,-1.93
517.75,-1.92
522.93,-1.91
528.16,-1.89
533.44,-1.88
538.77,-1.87
544.16,-1.85
549.60,-1.84
555.10,-1.83
560.65,-1.82
566.25,-1.80
571.92,-1.79
577.64,-1.78
583.41,-1.77
589.25,-1.75
595.14,-1.74
601.09,-1.73
607.10,-1.71
613.17,-1.70
619.30,-1.69
625.50,-1.68
631.75,-1.66
638.07,-1.65
644.45,-1.64
650.89,-1.63
657.40,-1.61
663.98,-1.60
670.62,-1.58
677.32,-1.57
684.10,-1.55
690.94,-1.53
697.85,-1.52
704.83,-1.50
711.87,-1.48
718.99,-1.46
726.18,-1.44
733.44,-1.42
740.78,-1.40
748.19,-1.38
755.67,-1.35
763.23,-1.33
770.86,-1.30
778.57,-1.27
786.35,-1.25
794.22,-1.22
802.16,-1.19
810.18,-1.16
818.28,-1.12
826.46,-1.09
834.73,-1.05
843.08,-1.02
851.51,-0.98
860.02,-0.94
868.62,-0.89
877.31,-0.85
886.08,-0.80
894.94,-0.75
903.89,-0.70
912.93,-0.64
922.06,-0.58
931.28,-0.52
940.59,-0.46
950.00,-0.39
959.50,-0.32
969.09,-0.25
978.78,-0.17
988.57,-0.09
998.46,-0.01
1008.44,0.07
1018.53,0.16
1028.71,0.25
1039.00,0.34
1049.39,0.43
1059.88,0.53
1070.48,0.62
1081.19,0.72
1092.00,0.82
1102.92,0.92
1113.95,1.02
1125.09,1.12
1136.34,1.23
1147.70,1.33
1159.18,1.43
1170.77,1.54
1182.48,1.64
1194.30,1.74
1206.25,1.84
1218.31,1.94
1230.49,2.04
1242.80,2.14
1255.22,2.23
1267.78,2.32
1280.45,2.42
1293.26,2.51
1306.19,2.59
1319.25,2.68
1332.45,2.77
1345.77,2.85
1359.23,2.93
1372.82,3.01
1386.55,3.09
1400.41,3.17
1414.42,3.25
1428.56,3.32
1442.85,3.40
1457.28,3.47
1471.85,3.55
1486.57,3.62
1501.43,3.69
1516.45,3.77
1531.61,3.84
1546.93,3.92
1562.40,3.99
1578.02,4.06
1593.80,4.14
1609.74,4.22
1625.84,4.29
1642.10,4.37
1658.52,4.45
1675.10,4.53
1691.85,4.61
1708.77,4.70
1725.86,4.78
1743.12,4.87
1760.55,4.96
1778.15,5.05
1795.94,5.14
1813.90,5.23
1832.03,5.33
1850.36,5.42
1868.86,5.52
1887.55,5.62
1906.42,5.72
1925.49,5.82
1944.74,5.93
1964.19,6.04
1983.83,6.14
2003.67,6.25
2023.71,6.37
2043.94,6.48
2064.38,6.59
2085.03,6.71
2105.88,6.82
2126.94,6.94
2148.20,7.06
2169.69,7.18
2191.38,7.29
2213.30,7.41
2235.43,7.53
2257.78,7.64
2280.36,7.76
2303.17,7.87
2326.20,7.98
2349.46,8.09
2372.95,8.19
2396.68,8.29
2420.65,8.38
2444.86,8.47
2469.31,8.56
2494.00,8.63
2518.94,8.70
2544.13,8.77
2569.57,8.82
2595.27,8.87
2621.22,8.91
2647.43,8.93
2673.90,8.95
2700.64,8.96
2727.65,8.97
2754.93,8.96
2782.48,8.94
2810.30,8.92
2838.40,8.89
2866.79,8.85
2895.46,8.81
2924.41,8.76
2953.65,8.70
2983.19,8.64
3013.02,8.58
3043.15,8.51
3073.58,8.44
3104.32,8.36
3135.36,8.29
3166.72,8.21
3198.38,8.14
3230.37,8.06
3262.67,7.99
3295.30,7.91
3328.25,7.84
3361.53,7.77
3395.15,7.71
3429.10,7.64
3463.39,7.58
3498.03,7.53
3533.01,7.48
3568.34,7.43
3604.02,7.39
3640.06,7.35
3676.46,7.32
3713.22,7.29
3750.36,7.26
3787.86,7.25
3825.74,7.23
3864.00,7.22
3902.64,7.22
3941.66,7.21
3981.08,7.22
4020.89,7.22
4061.10,7.23
4101.71,7.25
4142.73,7.26
4184.15,7.28
4226.00,7.30
4268.26,7.32
4310.94,7.34
4354.05,7.36
4397.59,7.37
4441.56,7.38
4485.98,7.39
4530.84,7.38
4576.15,7.37
4621.91,7.35
4668.13,7.32
4714.81,7.27
4761.96,7.21
4809.58,7.13
4857.67,7.04
4906.25,6.93
4955.31,6.81
5004.87,6.68
5054.91,6.52
5105.46,6.36
5156.52,6.18
5208.08,6.00
5260.16,5.80
5312.77,5.60
5365.89,5.39
5419.55,5.18
5473.75,4.97
5528.49,4.75
5583.77,4.54
5639.61,4.34
5696.00,4.14
5752.96,3.95
5810.49,3.76
5868.60,3.58
5927.28,3.41
5986.56,3.25
6046.42,3.09
6106.89,2.94
6167.96,2.80
6229.64,2.66
6291.93,2.52
6354.85,2.38
6418.40,2.24
6482.58,2.10
6547.41,1.96
6612.88,1.82
6679.01,1.67
6745.80,1.52
6813.26,1.36
6881.39,1.21
6950.21,1.07
7019.71,0.93
7089.91,0.81
7160.81,0.71
7232.41,0.64
7304.74,0.58
7377.79,0.55
7451.56,0.55
7526.08,0.58
7601.34,0.64
7677.35,0.73
7754.13,0.84
7831.67,0.99
7909.98,1.14
7989.08,1.32
8068.98,1.51
8149.67,1.70
8231.16,1.89
8313.47,2.06
8396.61,2.22
8480.57,2.36
8565.38,2.45
8651.03,2.50
8737.54,2.52
8824.92,2.48
8913.17,2.38
9002.30,2.26
9092.32,2.08
9183.25,1.86
9275.08,1.62
9367.83,1.36
9461.51,1.07
9556.12,0.78
9651.68,0.50
9748.20,0.22
9845.68,-0.03
9944.14,-0.25
10043.58,-0.42
10144.02,-0.55
10245.46,-0.59
10347.91,-0.58
10451.39,-0.50
10555.91,-0.31
10661.46,-0.06
10768.08,0.25
10875.76,0.65
10984.52,1.09
11094.36,1.55
11205.31,2.02
11317.36,2.44
11430.53,2.80
11544.84,3.02
11660.29,3.11
11776.89,3.11
11894.66,2.84
12013.60,2.52
12133.74,2.08
12255.08,1.54
12377.63,0.95
12501.41,0.36
12626.42,-0.19
12752.68,-0.65
12880.21,-0.95
13009.01,-1.18
13139.10,-1.41
13270.49,-1.43
13403.20,-1.41
13537.23,-1.30
13672.60,-1.20
13809.33,-1.10
13947.42,-1.07
14086.90,-1.13
14227.77,-1.24
14370.04,-1.42
14513.74,-1.67
14658.88,-2.02
14805.47,-2.39
14953.52,-2.79
15103.06,-3.21
15254.09,-3.63
15406.63,-4.04
15560.70,-4.44
15716.30,-4.81
15873.47,-5.15
16032.20,-5.48
16192.52,-5.82
16354.45,-6.21
16517.99,-6.64
16683.17,-7.17
16850.01,-7.74
17018.51,-8.32
17188.69,-8.82
17360.58,-9.13
17534.18,-9.27
17709.53,-9.13
17886.62,-8.86
18065.49,-8.56
18246.14,-8.30
18428.60,-8.23
18612.89,-8.29
18799.02,-8.47
18987.01,-8.78
19176.88,-9.22
19368.65,-9.77
19562.33,-10.45
19757.96,-11.28
19955.54,-12.33
