frequency,raw,smoothed,error,error_smoothed,equalization,parametric_eq,fixed_band_eq,equalized_raw,equalized_smoothed,target
20.00,5.40,5.40,-1.48,-1.48,1.49,0.89,-0.28,6.89,6.89,6.88
20.20,5.43,5.43,-1.45,-1.45,1.46,0.86,-0.29,6.89,6.89,6.88
20.40,5.47,5.46,-1.41,-1.42,1.42,0.82,-0.30,6.89,6.88,6.88
20.61,5.50,5.50,-1.38,-1.38,1.37,0.79,-0.31,6.87,6.88,6.88
20.81,5.55,5.55,-1.33,-1.33,1.32,0.75,-0.31,6.87,6.87,6.88
21.02,5.60,5.60,-1.28,-1.28,1.27,0.71,-0.32,6.87,6.87,6.88
21.23,5.66,5.66,-1.22,-1.22,1.21,0.68,-0.33,6.87,6.87,6.88
21.44,5.73,5.73,-1.15,-1.15,1.14,0.64,-0.34,6.87,6.87,6.88
21.66,5.81,5.81,-1.07,-1.07,1.07,0.60,-0.35,6.87,6.87,6.88
21.87,5.89,5.89,-0.99,-0.98,0.98,0.56,-0.36,6.87,6.87,6.88
22.09,5.98,5.98,-0.89,-0.90,0.90,0.53,-0.37,6.88,6.87,6.87
22.31,6.07,6.07,-0.80,-0.81,0.81,0.49,-0.38,6.88,6.87,6.87
22.54,6.16,6.16,-0.72,-0.71,0.71,0.45,-0.39,6.87,6.87,6.87
22.76,6.25,6.25,-0.62,-0.62,0.62,0.41,-0.40,6.87,6.87,6.87
22.99,6.34,6.34,-0.53,-0.53,0.54,0.37,-0.42,6.88,6.87,6.87
23.22,6.42,6.42,-0.45,-0.45,0.46,0.33,-0.43,6.87,6.88,6.87
23.45,6.50,6.50,-0.37,-0.37,0.38,0.29,-0.44,6.88,6.88,6.87
23.69,6.57,6.57,-0.30,-0.30,0.31,0.25,-0.45,6.87,6.87,6.87
23.92,6.63,6.63,-0.24,-0.24,0.24,0.21,-0.46,6.87,6.87,6.87
24.16,6.69,6.69,-0.18,-0.18,0.18,0.17,-0.48,6.87,6.87,6.87
24.40,6.74,6.74,-0.12,-0.12,0.12,0.13,-0.49,6.86,6.87,6.86
24.65,6.80,6.79,-0.06,-0.07,0.07,0.08,-0.50,6.87,6.86,6.86
24.89,6.84,6.84,-0.02,-0.02,0.02,0.04,-0.52,6.86,6.86,6.86
25.14,6.89,6.89,0.03,0.03,-0.03,-0.00,-0.53,6.86,6.86,6.86
25.39,6.94,6.94,0.08,0.08,-0.08,-0.04,-0.54,6.86,6.86,6.86
25.65,6.99,6.99,0.13,0.13,-0.13,-0.09,-0.56,6.85,6.86,6.86
25.91,7.04,7.04,0.18,0.18,-0.19,-0.13,-0.57,6.85,6.85,6.86
26.16,7.09,7.09,0.24,0.23,-0.24,-0.17,-0.58,6.85,6.85,6.85
26.43,7.14,7.14,0.29,0.29,-0.29,-0.22,-0.60,6.85,6.85,6.85
26.69,7.20,7.20,0.35,0.34,-0.34,-0.26,-0.61,6.86,6.85,6.85
26.96,7.25,7.25,0.40,0.40,-0.39,-0.31,-0.63,6.86,6.85,6.85
27.23,7.29,7.29,0.44,0.44,-0.44,-0.35,-0.64,6.85,6.85,6.85
27.50,7.34,7.34,0.49,0.49,-0.49,-0.40,-0.65,6.85,6.85,6.85
27.77,7.38,7.38,0.54,0.54,-0.54,-0.44,-0.66,6.84,6.85,6.84
28.05,7.43,7.42,0.59,0.58,-0.58,-0.49,-0.68,6.85,6.84,6.84
28.33,7.46,7.46,0.62,0.62,-0.62,-0.53,-0.69,6.84,6.84,6.84
28.62,7.50,7.50,0.66,0.66,-0.66,-0.58,-0.70,6.84,6.84,6.84
28.90,7.54,7.54,0.70,0.70,-0.70,-0.62,-0.71,6.84,6.83,6.84
29.19,7.57,7.57,0.74,0.74,-0.74,-0.67,-0.72,6.83,6.83,6.83
29.48,7.61,7.61,0.78,0.78,-0.78,-0.71,-0.73,6.83,6.83,6.83
29.78,7.64,7.64,0.81,0.81,-0.82,-0.75,-0.74,6.82,6.83,6.83
30.08,7.68,7.68,0.85,0.85,-0.85,-0.80,-0.75,6.83,6.82,6.83
30.38,7.71,7.71,0.89,0.89,-0.89,-0.84,-0.76,6.82,6.82,6.82
30.68,7.75,7.75,0.93,0.93,-0.93,-0.88,-0.77,6.82,6.82,6.82
30.99,7.78,7.78,0.96,0.96,-0.96,-0.92,-0.78,6.82,6.82,6.82
31.30,7.81,7.81,0.99,1.00,-0.99,-0.95,-0.78,6.82,6.82,6.81
31.61,7.84,7.84,1.03,1.03,-1.02,-0.99,-0.79,6.81,6.81,6.81
31.93,7.86,7.86,1.05,1.06,-1.05,-1.02,-0.79,6.80,6.81,6.81
32.24,7.89,7.89,1.09,1.08,-1.08,-1.06,-0.80,6.81,6.80,6.80
32.57,7.91,7.91,1.11,1.11,-1.11,-1.09,-0.80,6.80,6.80,6.80
32.89,7.93,7.93,1.13,1.13,-1.13,-1.12,-0.81,6.80,6.80,6.80
33.22,7.95,7.95,1.16,1.16,-1.16,-1.14,-0.81,6.79,6.79,6.79
33.55,7.97,7.97,1.18,1.18,-1.18,-1.17,-0.81,6.79,6.79,6.79
33.89,7.99,7.99,1.20,1.20,-1.20,-1.19,-0.81,6.79,6.79,6.79
34.23,8.01,8.01,1.23,1.23,-1.22,-1.22,-0.82,6.78,6.78,6.78
34.57,8.02,8.02,1.24,1.25,-1.25,-1.24,-0.82,6.77,6.78,6.78
34.92,8.04,8.04,1.27,1.26,-1.27,-1.26,-0.82,6.77,6.77,6.77
35.27,8.05,8.05,1.28,1.28,-1.29,-1.28,-0.82,6.76,6.77,6.77
35.62,8.07,8.07,1.31,1.30,-1.30,-1.30,-0.82,6.77,6.76,6.76
35.97,8.08,8.08,1.32,1.32,-1.32,-1.32,-0.82,6.76,6.76,6.76
36.33,8.09,8.09,1.34,1.34,-1.34,-1.33,-0.82,6.75,6.75,6.75
36.70,8.10,8.10,1.35,1.35,-1.35,-1.35,-0.82,6.75,6.75,6.75
37.06,8.11,8.11,1.37,1.37,-1.36,-1.37,-0.82,6.74,6.74,6.74
37.43,8.11,8.11,1.37,1.38,-1.38,-1.38,-0.83,6.73,6.74,6.74
37.81,8.12,8.12,1.39,1.39,-1.39,-1.40,-0.83,6.73,6.73,6.73
38.19,8.12,8.12,1.40,1.40,-1.40,-1.41,-0.83,6.72,6.72,6.72
38.57,8.12,8.12,1.40,1.41,-1.41,-1.42,-0.83,6.71,6.72,6.72
38.95,8.13,8.13,1.42,1.42,-1.42,-1.43,-0.83,6.71,6.71,6.71
39.34,8.13,8.13,1.43,1.43,-1.43,-1.45,-0.84,6.70,6.70,6.70
39.74,8.13,8.13,1.43,1.43,-1.43,-1.46,-0.84,6.69,6.70,6.70
40.14,8.13,8.13,1.44,1.44,-1.44,-1.47,-0.84,6.69,6.69,6.69
40.54,8.13,8.13,1.45,1.45,-1.45,-1.47,-0.85,6.68,6.68,6.68
40.94,8.13,8.13,1.46,1.46,-1.45,-1.48,-0.85,6.68,6.67,6.67
41.35,8.12,8.12,1.46,1.46,-1.46,-1.49,-0.86,6.66,6.67,6.66
41.76,8.12,8.12,1.46,1.46,-1.46,-1.49,-0.87,6.66,6.65,6.65
42.18,8.11,8.11,1.46,1.46,-1.47,-1.50,-0.87,6.64,6.64,6.65
42.60,8.10,8.10,1.46,1.47,-1.47,-1.50,-0.88,6.63,6.63,6.64
43.03,8.10,8.09,1.47,1.47,-1.47,-1.50,-0.89,6.63,6.62,6.63
43.46,8.09,8.09,1.47,1.47,-1.47,-1.51,-0.90,6.61,6.61,6.62
43.90,8.08,8.08,1.47,1.48,-1.48,-1.51,-0.91,6.60,6.61,6.61
44.33,8.08,8.08,1.48,1.48,-1.48,-1.50,-0.92,6.60,6.60,6.59
44.78,8.07,8.07,1.49,1.48,-1.48,-1.50,-0.93,6.59,6.58,6.58
45.23,8.05,8.05,1.48,1.48,-1.48,-1.50,-0.94,6.57,6.57,6.57
45.68,8.04,8.04,1.48,1.48,-1.48,-1.49,-0.96,6.56,6.56,6.56
46.13,8.03,8.03,1.48,1.48,-1.48,-1.49,-0.97,6.55,6.55,6.55
46.60,8.01,8.01,1.47,1.48,-1.48,-1.48,-0.99,6.53,6.54,6.53
47.06,8.00,8.00,1.48,1.47,-1.47,-1.47,-1.00,6.53,6.52,6.52
47.53,7.98,7.98,1.47,1.47,-1.47,-1.46,-1.02,6.51,6.51,6.51
48.01,7.95,7.95,1.46,1.46,-1.46,-1.45,-1.03,6.49,6.49,6.49
48.49,7.93,7.93,1.45,1.45,-1.45,-1.44,-1.05,6.47,6.48,6.48
48.97,7.91,7.91,1.45,1.45,-1.45,-1.43,-1.07,6.46,6.46,6.46
49.46,7.89,7.89,1.44,1.44,-1.44,-1.42,-1.08,6.45,6.45,6.45
49.96,7.86,7.86,1.43,1.43,-1.43,-1.40,-1.10,6.43,6.43,6.43
50.46,7.83,7.83,1.42,1.42,-1.41,-1.39,-1.12,6.41,6.42,6.41
50.96,7.80,7.80,1.40,1.40,-1.40,-1.37,-1.14,6.40,6.40,6.40
51.47,7.77,7.77,1.39,1.39,-1.39,-1.36,-1.16,6.38,6.38,6.38
51.99,7.73,7.73,1.37,1.37,-1.37,-1.34,-1.18,6.36,6.36,6.36
52.51,7.70,7.70,1.36,1.36,-1.36,-1.33,-1.19,6.34,6.34,6.34
53.03,7.66,7.66,1.34,1.34,-1.34,-1.31,-1.21,6.32,6.32,6.32
53.56,7.62,7.62,1.32,1.32,-1.33,-1.30,-1.23,6.29,6.30,6.30
54.10,7.59,7.59,1.31,1.31,-1.31,-1.28,-1.25,6.28,6.28,6.28
54.64,7.55,7.55,1.29,1.29,-1.29,-1.27,-1.27,6.26,6.26,6.26
55.18,7.51,7.51,1.27,1.28,-1.27,-1.25,-1.28,6.24,6.24,6.23
55.74,7.47,7.47,1.26,1.26,-1.25,-1.24,-1.30,6.22,6.21,6.21
56.29,7.42,7.42,1.23,1.24,-1.24,-1.22,-1.32,6.18,6.19,6.19
56.86,7.38,7.38,1.22,1.22,-1.22,-1.21,-1.33,6.16,6.16,6.16
57.42,7.33,7.33,1.19,1.19,-1.20,-1.20,-1.34,6.13,6.13,6.14
58.00,7.29,7.29,1.18,1.18,-1.18,-1.18,-1.35,6.11,6.11,6.11
58.58,7.24,7.24,1.16,1.16,-1.16,-1.17,-1.36,6.08,6.08,6.08
59.16,7.20,7.20,1.14,1.14,-1.14,-1.16,-1.37,6.06,6.05,6.05
59.76,7.15,7.15,1.12,1.13,-1.13,-1.14,-1.38,6.02,6.03,6.03
60.35,7.11,7.11,1.11,1.11,-1.11,-1.13,-1.39,6.00,6.00,6.00
60.96,7.06,7.06,1.09,1.09,-1.09,-1.12,-1.39,5.97,5.97,5.97
61.57,7.01,7.01,1.08,1.08,-1.08,-1.11,-1.39,5.93,5.93,5.93
62.18,6.97,6.96,1.07,1.06,-1.07,-1.09,-1.39,5.90,5.90,5.90
62.80,6.92,6.92,1.05,1.05,-1.05,-1.08,-1.39,5.87,5.87,5.87
63.43,6.87,6.87,1.04,1.04,-1.04,-1.07,-1.39,5.83,5.83,5.83
64.07,6.83,6.83,1.03,1.03,-1.03,-1.05,-1.38,5.80,5.80,5.80
64.71,6.78,6.78,1.02,1.02,-1.01,-1.04,-1.37,5.77,5.77,5.76
65.35,6.73,6.73,1.00,1.00,-1.00,-1.03,-1.36,5.73,5.73,5.73
66.01,6.68,6.68,0.99,0.99,-0.99,-1.01,-1.35,5.69,5.69,5.69
66.67,6.62,6.62,0.97,0.97,-0.98,-1.00,-1.34,5.64,5.65,5.65
67.33,6.57,6.57,0.96,0.96,-0.96,-0.98,-1.33,5.60,5.61,5.61
68.01,6.52,6.52,0.95,0.95,-0.95,-0.97,-1.31,5.57,5.57,5.57
68.69,6.47,6.47,0.94,0.94,-0.94,-0.95,-1.29,5.53,5.53,5.53
69.37,6.41,6.41,0.93,0.93,-0.93,-0.94,-1.28,5.48,5.48,5.48
70.07,6.36,6.36,0.92,0.92,-0.92,-0.93,-1.26,5.44,5.44,5.44
70.77,6.30,6.30,0.91,0.91,-0.91,-0.91,-1.24,5.39,5.39,5.39
71.48,6.24,6.24,0.89,0.90,-0.90,-0.90,-1.22,5.34,5.35,5.35
72.19,6.19,6.19,0.89,0.89,-0.89,-0.88,-1.19,5.30,5.30,5.30
72.91,6.13,6.13,0.88,0.88,-0.87,-0.87,-1.17,5.25,5.25,5.25
73.64,6.07,6.07,0.87,0.86,-0.86,-0.86,-1.15,5.21,5.20,5.20
74.38,6.00,6.00,0.85,0.85,-0.85,-0.85,-1.13,5.15,5.15,5.15
75.12,5.94,5.94,0.84,0.84,-0.84,-0.83,-1.10,5.10,5.10,5.10
75.87,5.88,5.88,0.83,0.83,-0.83,-0.82,-1.08,5.05,5.05,5.05
76.63,5.81,5.81,0.81,0.82,-0.82,-0.81,-1.06,4.99,5.00,5.00
77.40,5.75,5.75,0.81,0.80,-0.80,-0.80,-1.03,4.94,4.94,4.94
78.17,5.68,5.68,0.79,0.79,-0.79,-0.79,-1.01,4.89,4.89,4.89
78.95,5.61,5.61,0.78,0.78,-0.78,-0.78,-0.99,4.83,4.83,4.83
79.74,5.55,5.55,0.78,0.77,-0.77,-0.76,-0.96,4.78,4.77,4.77
80.54,5.48,5.48,0.77,0.76,-0.76,-0.76,-0.94,4.71,4.71,4.71
81.35,5.41,5.41,0.76,0.76,-0.76,-0.75,-0.92,4.65,4.65,4.65
82.16,5.34,5.34,0.74,0.75,-0.75,-0.74,-0.90,4.59,4.59,4.59
82.98,5.28,5.28,0.75,0.74,-0.75,-0.73,-0.88,4.53,4.53,4.53
83.81,5.21,5.21,0.74,0.74,-0.74,-0.72,-0.86,4.47,4.47,4.47
84.65,5.15,5.15,0.74,0.74,-0.74,-0.72,-0.84,4.41,4.41,4.41
85.50,5.08,5.08,0.73,0.73,-0.73,-0.71,-0.82,4.35,4.35,4.34
86.35,5.01,5.01,0.73,0.73,-0.73,-0.71,-0.80,4.28,4.28,4.28
87.22,4.94,4.94,0.72,0.72,-0.72,-0.70,-0.78,4.22,4.22,4.22
88.09,4.87,4.87,0.72,0.72,-0.72,-0.70,-0.76,4.15,4.15,4.15
88.97,4.80,4.80,0.72,0.71,-0.71,-0.69,-0.75,4.09,4.08,4.08
89.86,4.72,4.72,0.70,0.71,-0.71,-0.69,-0.73,4.01,4.01,4.02
90.76,4.65,4.65,0.70,0.70,-0.71,-0.69,-0.71,3.94,3.94,3.95
91.66,4.58,4.58,0.70,0.70,-0.70,-0.69,-0.70,3.88,3.88,3.88
92.58,4.51,4.51,0.70,0.70,-0.70,-0.68,-0.68,3.81,3.81,3.81
93.51,4.44,4.44,0.70,0.70,-0.70,-0.68,-0.67,3.74,3.74,3.74
94.44,4.37,4.37,0.70,0.70,-0.70,-0.68,-0.66,3.67,3.67,3.67
95.39,4.29,4.29,0.69,0.69,-0.69,-0.68,-0.64,3.60,3.60,3.60
96.34,4.22,4.22,0.69,0.69,-0.69,-0.68,-0.63,3.53,3.53,3.53
97.30,4.15,4.15,0.69,0.69,-0.69,-0.68,-0.62,3.46,3.46,3.46
98.28,4.07,4.07,0.69,0.69,-0.69,-0.68,-0.61,3.38,3.39,3.38
99.26,4.00,4.00,0.69,0.68,-0.68,-0.68,-0.60,3.32,3.32,3.31
100.25,3.92,3.92,0.68,0.68,-0.68,-0.69,-0.59,3.24,3.24,3.24
101.25,3.84,3.84,0.67,0.67,-0.67,-0.69,-0.57,3.16,3.17,3.17
102.27,3.76,3.76,0.67,0.67,-0.67,-0.69,-0.57,3.09,3.09,3.09
103.29,3.69,3.69,0.67,0.66,-0.67,-0.69,-0.56,3.02,3.02,3.02
104.32,3.61,3.61,0.66,0.66,-0.67,-0.69,-0.55,2.94,2.94,2.95
105.37,3.54,3.54,0.66,0.66,-0.67,-0.69,-0.54,2.87,2.87,2.87
106.42,3.47,3.47,0.67,0.67,-0.67,-0.68,-0.53,2.80,2.80,2.80
107.48,3.40,3.40,0.67,0.67,-0.67,-0.68,-0.52,2.73,2.73,2.73
108.56,3.33,3.33,0.67,0.67,-0.67,-0.68,-0.51,2.66,2.66,2.66
109.64,3.25,3.25,0.67,0.67,-0.67,-0.68,-0.51,2.58,2.58,2.58
110.74,3.18,3.18,0.67,0.67,-0.67,-0.68,-0.50,2.51,2.51,2.51
111.85,3.11,3.11,0.67,0.67,-0.67,-0.67,-0.49,2.44,2.44,2.44
112.97,3.04,3.04,0.67,0.67,-0.67,-0.67,-0.49,2.37,2.37,2.37
114.10,2.96,2.96,0.66,0.67,-0.67,-0.66,-0.48,2.29,2.30,2.29
115.24,2.89,2.89,0.67,0.66,-0.66,-0.66,-0.47,2.23,2.22,2.22
116.39,2.81,2.81,0.66,0.66,-0.66,-0.65,-0.47,2.15,2.15,2.15
117.55,2.73,2.73,0.65,0.65,-0.65,-0.65,-0.46,2.08,2.08,2.08
118.73,2.66,2.65,0.65,0.64,-0.64,-0.64,-0.45,2.01,2.01,2.01
119.92,2.58,2.58,0.64,0.64,-0.64,-0.63,-0.45,1.94,1.94,1.94
121.12,2.50,2.50,0.63,0.63,-0.63,-0.63,-0.44,1.87,1.87,1.87
122.33,2.43,2.43,0.62,0.62,-0.62,-0.62,-0.43,1.81,1.80,1.81
123.55,2.36,2.36,0.62,0.62,-0.62,-0.61,-0.43,1.74,1.74,1.74
124.79,2.28,2.28,0.61,0.61,-0.61,-0.60,-0.42,1.67,1.67,1.67
126.03,2.21,2.21,0.60,0.60,-0.61,-0.60,-0.41,1.60,1.60,1.61
127.29,2.14,2.14,0.60,0.60,-0.60,-0.59,-0.41,1.54,1.54,1.54
128.57,2.07,2.07,0.59,0.59,-0.59,-0.58,-0.40,1.48,1.48,1.48
129.85,2.00,2.00,0.59,0.58,-0.58,-0.57,-0.39,1.42,1.41,1.41
131.15,1.92,1.92,0.57,0.57,-0.57,-0.56,-0.39,1.34,1.35,1.35
132.46,1.85,1.85,0.56,0.56,-0.56,-0.55,-0.38,1.28,1.28,1.29
133.79,1.78,1.78,0.55,0.55,-0.55,-0.54,-0.37,1.22,1.22,1.22
135.12,1.71,1.71,0.54,0.54,-0.54,-0.54,-0.37,1.17,1.17,1.16
136.48,1.64,1.64,0.53,0.53,-0.53,-0.53,-0.36,1.11,1.11,1.10
137.84,1.57,1.57,0.52,0.52,-0.52,-0.52,-0.35,1.05,1.05,1.05
139.22,1.50,1.50,0.51,0.51,-0.51,-0.51,-0.34,0.99,0.99,0.99
140.61,1.43,1.43,0.50,0.50,-0.50,-0.50,-0.34,0.93,0.93,0.93
142.02,1.37,1.37,0.49,0.49,-0.49,-0.49,-0.33,0.88,0.88,0.88
143.44,1.31,1.30,0.49,0.48,-0.48,-0.48,-0.32,0.83,0.82,0.82
144.87,1.24,1.24,0.47,0.47,-0.47,-0.47,-0.32,0.77,0.77,0.77
146.32,1.18,1.18,0.46,0.46,-0.46,-0.46,-0.31,0.72,0.72,0.72
147.78,1.12,1.12,0.46,0.46,-0.45,-0.45,-0.30,0.67,0.67,0.66
149.26,1.06,1.06,0.45,0.45,-0.44,-0.44,-0.30,0.62,0.62,0.61
150.75,1.00,1.00,0.44,0.43,-0.43,-0.43,-0.29,0.57,0.57,0.56
152.26,0.93,0.93,0.41,0.42,-0.42,-0.42,-0.28,0.51,0.51,0.52
153.78,0.87,0.87,0.40,0.40,-0.40,-0.40,-0.27,0.46,0.47,0.47
155.32,0.81,0.81,0.39,0.39,-0.39,-0.39,-0.27,0.42,0.42,0.42
156.88,0.76,0.76,0.38,0.38,-0.38,-0.38,-0.26,0.38,0.37,0.38
158.44,0.70,0.70,0.37,0.37,-0.37,-0.37,-0.26,0.33,0.33,0.33
160.03,0.65,0.65,0.36,0.36,-0.36,-0.35,-0.25,0.29,0.29,0.29
161.63,0.60,0.59,0.36,0.36,-0.36,-0.34,-0.24,0.24,0.24,0.24
163.24,0.54,0.54,0.34,0.35,-0.35,-0.33,-0.24,0.19,0.20,0.19
164.88,0.49,0.49,0.34,0.34,-0.33,-0.31,-0.23,0.15,0.16,0.15
166.53,0.44,0.44,0.32,0.32,-0.32,-0.30,-0.23,0.12,0.12,0.11
168.19,0.39,0.39,0.31,0.31,-0.31,-0.28,-0.22,0.08,0.08,0.08
169.87,0.33,0.33,0.29,0.29,-0.29,-0.27,-0.22,0.04,0.04,0.04
171.57,0.27,0.27,0.27,0.27,-0.27,-0.25,-0.21,0.00,0.00,0.00
173.29,0.22,0.22,0.25,0.25,-0.25,-0.24,-0.20,-0.03,-0.03,-0.03
175.02,0.16,0.16,0.23,0.22,-0.22,-0.22,-0.20,-0.07,-0.07,-0.07
176.77,0.10,0.10,0.20,0.20,-0.20,-0.21,-0.20,-0.10,-0.10,-0.10
178.54,0.04,0.04,0.17,0.18,-0.18,-0.19,-0.19,-0.14,-0.14,-0.13
180.32,-0.01,-0.01,0.15,0.15,-0.16,-0.17,-0.19,-0.17,-0.17,-0.17
182.13,-0.06,-0.06,0.14,0.13,-0.14,-0.15,-0.18,-0.20,-0.20,-0.20
183.95,-0.11,-0.11,0.12,0.12,-0.12,-0.14,-0.18,-0.23,-0.23,-0.23
185.79,-0.15,-0.15,0.10,0.10,-0.10,-0.12,-0.17,-0.25,-0.25,-0.26
187.65,-0.20,-0.20,0.08,0.08,-0.08,-0.10,-0.17,-0.28,-0.28,-0.28
189.52,-0.24,-0.24,0.07,0.07,-0.06,-0.09,-0.17,-0.31,-0.31,-0.31
191.42,-0.29,-0.29,0.05,0.05,-0.05,-0.07,-0.16,-0.34,-0.34,-0.34
193.33,-0.33,-0.33,0.03,0.03,-0.03,-0.06,-0.16,-0.37,-0.37,-0.36
195.27,-0.37,-0.37,0.02,0.02,-0.02,-0.04,-0.16,-0.39,-0.39,-0.39
197.22,-0.41,-0.41,0.00,0.01,-0.01,-0.03,-0.15,-0.42,-0.42,-0.41
199.19,-0.44,-0.44,-0.00,-0.00,0.00,-0.01,-0.15,-0.44,-0.44,-0.44
201.18,-0.47,-0.47,-0.01,-0.01,0.01,-0.00,-0.15,-0.46,-0.46,-0.46
203.19,-0.50,-0.50,-0.02,-0.02,0.02,0.01,-0.14,-0.48,-0.48,-0.48
205.23,-0.53,-0.53,-0.03,-0.03,0.03,0.02,-0.14,-0.50,-0.50,-0.50
207.28,-0.56,-0.56,-0.04,-0.04,0.04,0.03,-0.14,-0.52,-0.52,-0.52
209.35,-0.59,-0.59,-0.05,-0.04,0.04,0.04,-0.13,-0.55,-0.55,-0.54
211.44,-0.61,-0.61,-0.05,-0.05,0.05,0.04,-0.13,-0.56,-0.57,-0.56
213.56,-0.64,-0.64,-0.06,-0.06,0.05,0.05,-0.13,-0.59,-0.58,-0.58
215.69,-0.66,-0.66,-0.06,-0.06,0.06,0.05,-0.12,-0.60,-0.60,-0.60
217.85,-0.68,-0.68,-0.06,-0.06,0.07,0.06,-0.12,-0.61,-0.62,-0.62
220.03,-0.70,-0.70,-0.07,-0.07,0.07,0.06,-0.12,-0.63,-0.63,-0.64
222.23,-0.73,-0.73,-0.08,-0.08,0.08,0.06,-0.11,-0.65,-0.65,-0.65
224.45,-0.75,-0.75,-0.08,-0.08,0.08,0.06,-0.11,-0.67,-0.67,-0.67
226.70,-0.77,-0.77,-0.09,-0.09,0.09,0.06,-0.11,-0.69,-0.69,-0.68
228.96,-0.79,-0.79,-0.09,-0.09,0.09,0.06,-0.10,-0.70,-0.70,-0.70
231.25,-0.81,-0.81,-0.10,-0.10,0.10,0.06,-0.10,-0.72,-0.72,-0.71
233.57,-0.83,-0.83,-0.10,-0.10,0.10,0.06,-0.10,-0.73,-0.73,-0.73
235.90,-0.85,-0.85,-0.10,-0.10,0.11,0.06,-0.09,-0.74,-0.74,-0.75
238.26,-0.87,-0.87,-0.11,-0.11,0.11,0.06,-0.09,-0.76,-0.76,-0.76
240.64,-0.89,-0.89,-0.12,-0.12,0.12,0.06,-0.09,-0.77,-0.77,-0.78
243.05,-0.92,-0.92,-0.13,-0.13,0.13,0.06,-0.08,-0.79,-0.79,-0.79
245.48,-0.94,-0.94,-0.14,-0.14,0.14,0.06,-0.08,-0.80,-0.80,-0.80
247.93,-0.96,-0.96,-0.15,-0.15,0.15,0.06,-0.07,-0.81,-0.82,-0.81
250.41,-0.98,-0.98,-0.16,-0.16,0.16,0.06,-0.07,-0.82,-0.82,-0.82
252.92,-1.00,-1.00,-0.17,-0.17,0.17,0.06,-0.06,-0.83,-0.83,-0.83
255.45,-1.01,-1.02,-0.17,-0.17,0.18,0.06,-0.06,-0.83,-0.84,-0.84
258.00,-1.03,-1.03,-0.18,-0.18,0.18,0.06,-0.05,-0.85,-0.85,-0.85
260.58,-1.05,-1.05,-0.19,-0.19,0.19,0.06,-0.05,-0.86,-0.86,-0.86
263.19,-1.06,-1.06,-0.19,-0.19,0.19,0.06,-0.04,-0.87,-0.87,-0.87
265.82,-1.07,-1.07,-0.19,-0.19,0.19,0.06,-0.04,-0.88,-0.88,-0.88
268.48,-1.08,-1.08,-0.19,-0.19,0.18,0.06,-0.03,-0.90,-0.90,-0.89
271.16,-1.07,-1.08,-0.17,-0.18,0.17,0.06,-0.02,-0.90,-0.90,-0.90
273.87,-1.07,-1.07,-0.17,-0.16,0.16,0.07,-0.02,-0.91,-0.91,-0.90
276.61,-1.05,-1.05,-0.14,-0.14,0.14,0.07,-0.01,-0.91,-0.91,-0.91
279.38,-1.03,-1.03,-0.11,-0.11,0.12,0.07,-0.00,-0.92,-0.92,-0.92
282.17,-1.01,-1.01,-0.08,-0.09,0.09,0.08,0.00,-0.92,-0.92,-0.93
284.99,-0.99,-0.99,-0.07,-0.07,0.07,0.08,0.01,-0.92,-0.92,-0.92
287.84,-0.97,-0.97,-0.05,-0.04,0.04,0.09,0.02,-0.93,-0.92,-0.92
290.72,-0.94,-0.95,-0.01,-0.02,0.02,0.09,0.02,-0.92,-0.93,-0.93
293.63,-0.93,-0.93,0.00,0.00,0.00,0.10,0.03,-0.93,-0.93,-0.93
296.57,-0.91,-0.91,0.02,0.02,-0.01,0.10,0.04,-0.93,-0.93,-0.93
299.53,-0.90,-0.90,0.02,0.03,-0.03,0.11,0.05,-0.93,-0.93,-0.92
302.53,-0.89,-0.89,0.04,0.04,-0.04,0.11,0.06,-0.93,-0.93,-0.93
305.55,-0.88,-0.88,0.04,0.04,-0.04,0.12,0.06,-0.93,-0.93,-0.93
308.61,-0.88,-0.88,0.05,0.05,-0.05,0.12,0.07,-0.93,-0.93,-0.93
311.69,-0.88,-0.88,0.04,0.05,-0.05,0.13,0.08,-0.93,-0.93,-0.93
314.81,-0.88,-0.88,0.05,0.04,-0.04,0.14,0.09,-0.92,-0.93,-0.93
317.96,-0.89,-0.89,0.03,0.04,-0.04,0.14,0.10,-0.93,-0.93,-0.92
321.14,-0.90,-0.90,0.03,0.03,-0.03,0.15,0.11,-0.93,-0.93,-0.93
324.35,-0.91,-0.91,0.01,0.01,-0.02,0.16,0.12,-0.93,-0.93,-0.92
327.59,-0.92,-0.92,-0.00,0.00,-0.00,0.17,0.13,-0.92,-0.92,-0.92
330.87,-0.93,-0.93,-0.01,-0.01,0.01,0.17,0.14,-0.92,-0.92,-0.92
334.18,-0.94,-0.94,-0.03,-0.03,0.03,0.18,0.15,-0.91,-0.92,-0.92
337.52,-0.96,-0.96,-0.04,-0.04,0.04,0.19,0.16,-0.92,-0.91,-0.92
340.90,-0.97,-0.97,-0.06,-0.06,0.06,0.20,0.17,-0.91,-0.91,-0.91
344.30,-0.98,-0.98,-0.07,-0.07,0.07,0.21,0.18,-0.91,-0.91,-0.91
347.75,-0.99,-0.99,-0.09,-0.09,0.09,0.21,0.19,-0.90,-0.90,-0.90
351.23,-1.00,-1.00,-0.10,-0.10,0.10,0.22,0.20,-0.90,-0.90,-0.90
354.74,-1.01,-1.01,-0.13,-0.12,0.11,0.23,0.21,-0.90,-0.89,-0.89
358.28,-1.01,-1.01,-0.12,-0.13,0.13,0.24,0.22,-0.88,-0.89,-0.89
361.87,-1.02,-1.02,-0.14,-0.14,0.14,0.25,0.23,-0.88,-0.88,-0.88
365.49,-1.02,-1.02,-0.15,-0.15,0.15,0.26,0.24,-0.87,-0.87,-0.87
369.14,-1.03,-1.03,-0.15,-0.16,0.16,0.27,0.25,-0.87,-0.87,-0.88
372.83,-1.03,-1.03,-0.17,-0.17,0.17,0.28,0.27,-0.86,-0.87,-0.86
376.56,-1.04,-1.04,-0.18,-0.18,0.18,0.29,0.28,-0.86,-0.86,-0.86
380.33,-1.05,-1.05,-0.20,-0.19,0.19,0.30,0.29,-0.86,-0.85,-0.85
384.13,-1.05,-1.05,-0.19,-0.20,0.21,0.31,0.30,-0.84,-0.85,-0.86
387.97,-1.06,-1.06,-0.21,-0.22,0.22,0.32,0.31,-0.84,-0.84,-0.85
391.85,-1.07,-1.07,-0.24,-0.23,0.23,0.33,0.33,-0.84,-0.84,-0.83
395.77,-1.08,-1.08,-0.25,-0.25,0.25,0.34,0.34,-0.83,-0.83,-0.83
399.73,-1.09,-1.09,-0.27,-0.26,0.26,0.35,0.35,-0.83,-0.83,-0.82
403.72,-1.09,-1.09,-0.27,-0.27,0.27,0.36,0.36,-0.82,-0.82,-0.82
407.76,-1.10,-1.10,-0.28,-0.28,0.28,0.37,0.37,-0.82,-0.81,-0.82
411.84,-1.10,-1.10,-0.29,-0.29,0.29,0.38,0.39,-0.81,-0.81,-0.81
415.96,-1.10,-1.11,-0.30,-0.30,0.30,0.39,0.40,-0.80,-0.80,-0.80
420.12,-1.11,-1.11,-0.31,-0.31,0.31,0.40,0.41,-0.80,-0.80,-0.80
424.32,-1.11,-1.11,-0.32,-0.32,0.31,0.41,0.42,-0.80,-0.80,-0.80
428.56,-1.11,-1.11,-0.32,-0.32,0.32,0.42,0.44,-0.79,-0.79,-0.79
432.85,-1.11,-1.11,-0.33,-0.33,0.33,0.43,0.45,-0.78,-0.78,-0.78
437.18,-1.11,-1.11,-0.33,-0.33,0.34,0.45,0.46,-0.77,-0.77,-0.78
441.55,-1.11,-1.11,-0.34,-0.34,0.35,0.46,0.47,-0.76,-0.76,-0.77
445.96,-1.11,-1.11,-0.35,-0.35,0.36,0.47,0.48,-0.75,-0.75,-0.76
450.42,-1.11,-1.11,-0.37,-0.37,0.37,0.48,0.49,-0.74,-0.75,-0.74
454.93,-1.12,-1.12,-0.39,-0.38,0.38,0.49,0.50,-0.74,-0.74,-0.73
459.48,-1.12,-1.12,-0.39,-0.40,0.39,0.50,0.51,-0.73,-0.73,-0.73
464.07,-1.13,-1.13,-0.40,-0.41,0.41,0.51,0.52,-0.72,-0.73,-0.73
468.71,-1.14,-1.14,-0.42,-0.42,0.42,0.53,0.53,-0.72,-0.72,-0.72
473.40,-1.14,-1.14,-0.43,-0.43,0.43,0.54,0.54,-0.71,-0.71,-0.71
478.13,-1.14,-1.14,-0.44,-0.44,0.44,0.55,0.54,-0.70,-0.70,-0.70
482.91,-1.14,-1.14,-0.45,-0.45,0.45,0.56,0.55,-0.70,-0.69,-0.69
487.74,-1.13,-1.13,-0.45,-0.45,0.45,0.57,0.55,-0.68,-0.68,-0.68
492.62,-1.13,-1.13,-0.46,-0.46,0.46,0.58,0.56,-0.67,-0.67,-0.67
497.55,-1.13,-1.13,-0.47,-0.47,0.47,0.60,0.56,-0.66,-0.66,-0.66
502.52,-1.13,-1.13,-0.48,-0.48,0.48,0.61,0.57,-0.65,-0.65,-0.65
507.55,-1.13,-1.13,-0.50,-0.49,0.49,0.62,0.57,-0.64,-0.64,-0.64
