frequency,raw
20.00,-4.49
20.20,-4.51
20.40,-4.54
20.61,-4.56
20.81,-4.59
21.02,-4.61
21.23,-4.64
21.44,-4.66
21.66,-4.69
21.87,-4.72
22.09,-4.74
22.31,-4.76
22.54,-4.79
22.76,-4.81
22.99,-4.83
23.22,-4.85
23.45,-4.87
23.69,-4.89
23.92,-4.91
24.16,-4.92
24.40,-4.93
24.65,-4.94
24.89,-4.95
25.14,-4.96
25.39,-4.96
25.65,-4.96
25.91,-4.96
26.16,-4.96
26.43,-4.95
26.69,-4.94
26.96,-4.93
27.23,-4.91
27.50,-4.90
27.77,-4.88
28.05,-4.86
28.33,-4.83
28.62,-4.81
28.90,-4.78
29.19,-4.75
29.48,-4.72
29.78,-4.69
30.08,-4.65
30.38,-4.62
30.68,-4.58
30.99,-4.55
31.30,-4.51
31.61,-4.48
31.93,-4.44
32.24,-4.41
32.57,-4.37
32.89,-4.34
33.22,-4.31
33.55,-4.28
33.89,-4.25
34.23,-4.22
34.57,-4.20
34.92,-4.17
35.27,-4.15
35.62,-4.14
35.97,-4.12
36.33,-4.11
36.70,-4.10
37.06,-4.09
37.43,-4.09
37.81,-4.09
38.19,-4.09
38.57,-4.09
38.95,-4.10
39.34,-4.11
39.74,-4.12
40.14,-4.14
40.54,-4.15
40.94,-4.17
41.35,-4.19
41.76,-4.20
42.18,-4.22
42.60,-4.24
43.03,-4.26
43.46,-4.27
43.90,-4.29
44.33,-4.30
44.78,-4.30
45.23,-4.31
45.68,-4.31
46.13,-4.30
46.60,-4.29
47.06,-4.28
47.53,-4.26
48.01,-4.23
48.49,-4.20
48.97,-4.17
49.46,-4.13
49.96,-4.08
50.46,-4.04
50.96,-3.98
51.47,-3.93
51.99,-3.88
52.51,-3.82
53.03,-3.76
53.56,-3.70
54.10,-3.65
54.64,-3.59
55.18,-3.54
55.74,-3.50
56.29,-3.45
56.86,-3.41
57.42,-3.38
58.00,-3.35
58.58,-3.33
59.16,-3.31
59.76,-3.30
60.35,-3.30
60.96,-3.30
61.57,-3.31
62.18,-3.32
62.80,-3.34
63.43,-3.36
64.07,-3.39
64.71,-3.42
65.35,-3.45
66.01,-3.48
66.67,-3.51
67.33,-3.54
68.01,-3.57
68.69,-3.59
69.37,-3.61
70.07,-3.62
70.77,-3.63
71.48,-3.64
72.19,-3.64
72.91,-3.63
73.64,-3.63
74.38,-3.61
75.12,-3.60
75.87,-3.58
76.63,-3.57
77.40,-3.55
78.17,-3.54
78.95,-3.53
79.74,-3.52
80.54,-3.52
81.35,-3.52
82.16,-3.53
82.98,-3.54
83.81,-3.55
84.65,-3.57
85.50,-3.60
86.35,-3.62
87.22,-3.65
88.09,-3.67
88.97,-3.69
89.86,-3.71
90.76,-3.72
91.66,-3.73
92.58,-3.73
93.51,-3.72
94.44,-3.71
95.39,-3.69
96.34,-3.67
97.30,-3.65
98.28,-3.63
99.26,-3.61
100.25,-3.60
101.25,-3.59
102.27,-3.58
103.29,-3.58
104.32,-3.59
105.37,-3.60
106.42,-3.62
107.48,-3.64
108.56,-3.66
109.64,-3.68
110.74,-3.70
111.85,-3.71
112.97,-3.72
114.10,-3.72
115.24,-3.72
116.39,-3.71
117.55,-3.69
118.73,-3.68
119.92,-3.66
121.12,-3.64
122.33,-3.63
123.55,-3.62
124.79,-3.61
126.03,-3.61
127.29,-3.62
128.57,-3.63
129.85,-3.64
131.15,-3.65
132.46,-3.66
133.79,-3.66
135.12,-3.66
136.48,-3.65
137.84,-3.64
139.22,-3.62
140.61,-3.61
142.02,-3.59
143.44,-3.58
144.87,-3.57
146.32,-3.57
147.78,-3.57
149.26,-3.58
150.75,-3.60
152.26,-3.61
153.78,-3.62
155.32,-3.62
156.88,-3.62
158.44,-3.61
160.03,-3.60
161.63,-3.58
163.24,-3.56
164.88,-3.55
166.53,-3.54
168.19,-3.54
169.87,-3.54
171.57,-3.54
173.29,-3.55
175.02,-3.56
176.77,-3.56
178.54,-3.56
180.32,-3.55
182.13,-3.54
183.95,-3.53
185.79,-3.51
187.65,-3.50
189.52,-3.50
191.42,-3.50
193.33,-3.50
195.27,-3.51
197.22,-3.51
199.19,-3.51
201.18,-3.51
203.19,-3.50
205.23,-3.48
207.28,-3.47
209.35,-3.46
211.44,-3.46
213.56,-3.46
215.69,-3.46
217.85,-3.47
220.03,-3.47
222.23,-3.46
224.45,-3.45
226.70,-3.44
228.96,-3.42
231.25,-3.41
233.57,-3.41
235.90,-3.41
238.26,-3.41
240.64,-3.41
243.05,-3.40
245.48,-3.40
247.93,-3.39
250.41,-3.38
252.92,-3.37
255.45,-3.36
258.00,-3.36
260.58,-3.36
263.19,-3.35
265.82,-3.35
268.48,-3.34
271.16,-3.33
273.87,-3.32
276.61,-3.31
279.38,-3.30
282.17,-3.29
284.99,-3.28
287.84,-3.27
290.72,-3.26
293.63,-3.25
296.57,-3.23
299.53,-3.22
302.53,-3.21
305.55,-3.19
308.61,-3.17
311.69,-3.15
314.81,-3.13
317.96,-3.11
321.14,-3.09
324.35,-3.07
327.59,-3.05
330.87,-3.04
334.18,-3.01
337.52,-2.99
340.90,-2.97
344.30,-2.94
347.75,-2.91
351.23,-2.88
354.74,-2.84
358.28,-2.81
361.87,-2.77
365.49,-2.74
369.14,-2.71
372.83,-2.68
376.56,-2.65
380.33,-2.63
384.13,-2.61
387.97,-2.59
391.85,-2.58
395.77,-2.57
399.73,-2.56
403.72,-2.55
407.76,-2.54
411.84,-2.54
415.96,-2.53
420.12,-2.52
424.32,-2.52
428.56,-2.52
432.85,-2.51
437.18,-2.51
441.55,-2.51
445.96,-2.51
450.42,-2.51
454.93,-2.51
459.48,-2.51
464.07,-2.51
468.71,-2.50
473.40,-2.50
478.13,-2.49
482.91,-2.49
487.74,-2.50
492.62,-2.50
497.55,-2.50
502.52,-2.50
507.55,-2.50
512.62,-2.50
517.75,-2.50
522.93,-2.50
528.16,-2.50
533.44,-2.51
538.77,-2.52
544.16,-2.53
549.60,-2.54
555.10,-2.55
560.65,-2.55
566.25,-2.55
571.92,-2.55
577.64,-2.54
583.41,-2.52
589.25,-2.49
595.14,-2.45
601.09,-2.41
607.10,-2.35
613.17,-2.30
619.30,-2.24
625.50,-2.19
631.75,-2.13
638.07,-2.06
644.45,-1.98
650.89,-1.91
657.40,-1.86
663.98,-1.80
670.62,-1.75
677.32,-1.70
684.10,-1.66
690.94,-1.61
697.85,-1.55
704.83,-1.50
711.87,-1.45
718.99,-1.41
726.18,-1.37
733.44,-1.31
740.78,-1.25
748.19,-1.19
755.67,-1.13
763.23,-1.06
770.86,-0.99
778.57,-0.93
786.35,-0.87
794.22,-0.83
802.16,-0.79
810.18,-0.75
818.28,-0.71
826.46,-0.67
834.73,-0.65
843.08,-0.62
851.51,-0.61
860.02,-0.58
868.62,-0.53
877.31,-0.49
886.08,-0.44
894.94,-0.39
903.89,-0.34
912.93,-0.30
922.06,-0.25
931.28,-0.21
940.59,-0.18
950.00,-0.15
959.50,-0.11
969.09,-0.08
978.78,-0.07
988.57,-0.04
998.46,-0.00
1008.44,0.01
1018.53,0.03
1028.71,0.03
1039.00,-0.01
1049.39,-0.05
1059.88,-0.04
1070.48,-0.06
1081.19,-0.08
1092.00,-0.12
1102.92,-0.16
1113.95,-0.18
1125.09,-0.21
1136.34,-0.22
1147.70,-0.22
1159.18,-0.25
1170.77,-0.26
1182.48,-0.30
1194.30,-0.30
1206.25,-0.32
1218.31,-0.35
1230.49,-0.36
1242.80,-0.37
1255.22,-0.35
1267.78,-0.34
1280.45,-0.30
1293.26,-0.21
1306.19,-0.10
1319.25,0.02
1332.45,0.12
1345.77,0.24
1359.23,0.33
1372.82,0.40
1386.55,0.39
1400.41,0.38
1414.42,0.33
1428.56,0.24
1442.85,0.22
1457.28,0.18
1471.85,0.20
1486.57,0.23
1501.43,0.27
1516.45,0.25
1531.61,0.21
1546.93,0.11
1562.40,-0.04
1578.02,-0.25
1593.80,-0.34
1609.74,-0.48
1625.84,-0.57
1642.10,-0.76
1658.52,-0.82
1675.10,-0.94
1691.85,-1.16
1708.77,-1.30
1725.86,-1.39
1743.12,-1.48
1760.55,-1.50
1778.15,-1.46
1795.94,-1.44
1813.90,-1.44
1832.03,-1.37
1850.36,-1.37
1868.86,-1.31
1887.55,-1.19
1906.42,-1.11
1925.49,-0.94
1944.74,-0.76
1964.19,-0.46
1983.83,-0.24
2003.67,0.11
2023.71,0.47
2043.94,0.79
2064.38,1.09
2085.03,1.23
2105.88,1.54
2126.94,1.81
2148.20,2.12
2169.69,2.52
2191.38,2.95
2213.30,3.36
2235.43,3.76
2257.78,4.04
2280.36,4.27
2303.17,4.47
2326.20,4.72
2349.46,5.08
2372.95,5.48
2396.68,5.91
2420.65,6.31
2444.86,6.71
2469.31,6.90
2494.00,7.02
2518.94,7.12
2544.13,7.29
2569.57,7.53
2595.27,7.73
2621.22,7.92
2647.43,8.09
2673.90,8.22
2700.64,8.28
2727.65,8.42
2754.93,8.54
2782.48,8.74
2810.30,8.97
2838.40,9.14
2866.79,9.28
2895.46,9.29
2924.41,9.25
2953.65,9.18
2983.19,9.15
3013.02,9.10
3043.15,9.07
3073.58,9.03
3104.32,8.95
3135.36,8.82
3166.72,8.70
3198.38,8.53
3230.37,8.34
3262.67,8.12
3295.30,7.87
3328.25,7.59
3361.53,7.27
3395.15,6.99
3429.10,6.74
3463.39,6.54
3498.03,6.39
3533.01,6.24
3568.34,6.03
3604.02,5.80
3640.06,5.50
3676.46,5.17
3713.22,4.80
3750.36,4.39
3787.86,3.95
3825.74,3.49
3864.00,3.05
3902.64,2.61
3941.66,2.26
3981.08,1.86
4020.89,1.42
4061.10,0.95
4101.71,0.46
4142.73,0.02
4184.15,-0.36
4226.00,-0.66
4268.26,-0.91
4310.94,-1.09
4354.05,-1.19
4397.59,-1.29
4441.56,-1.37
4485.98,-1.43
4530.84,-1.52
4576.15,-1.62
4621.91,-1.71
4668.13,-1.82
4714.81,-1.96
4761.96,-2.13
4809.58,-2.37
4857.67,-2.69
4906.25,-3.09
4955.31,-3.56
5004.87,-4.10
5054.91,-4.69
5105.46,-5.36
5156.52,-6.03
5208.08,-6.40
5260.16,-5.88
5312.77,-4.92
5365.89,-3.93
5419.55,-3.17
5473.75,-2.54
5528.49,-2.06
5583.77,-1.67
5639.61,-1.43
5696.00,-1.32
5752.96,-1.31
5810.49,-1.25
5868.60,-1.21
5927.28,-1.12
5986.56,-1.00
6046.42,-0.81
6106.89,-0.57
6167.96,-0.34
6229.64,-0.06
6291.93,0.23
6354.85,0.54
6418.40,0.82
6482.58,1.12
6547.41,1.42
6612.88,1.74
6679.01,2.03
6745.80,2.38
6813.26,2.68
6881.39,2.99
6950.21,3.26
7019.71,3.47
7089.91,3.60
7160.81,3.71
7232.41,3.73
7304.74,3.72
7377.79,3.70
7451.56,3.61
7526.08,3.46
7601.34,3.25
7677.35,2.93
7754.13,2.55
7831.67,2.14
7909.98,1.71
7989.08,1.32
8068.98,1.05
8149.67,0.92
8231.16,0.93
8313.47,1.09
8396.61,1.32
8480.57,1.55
8565.38,1.74
8651.03,1.89
8737.54,2.00
8824.92,2.11
8913.17,2.16
9002.30,2.13
9092.32,2.05
9183.25,1.84
9275.08,1.57
9367.83,1.11
9461.51,0.58
9556.12,-0.16
9651.68,-1.09
9748.20,-2.14
9845.68,-3.29
9944.14,-4.54
10043.58,-5.67
10144.02,-6.70
10245.46,-7.55
10347.91,-7.83
10451.39,-7.47
10555.91,-6.94
10661.46,-5.96
10768.08,-4.88
10875.76,-3.90
10984.52,-3.13
11094.36,-2.63
11205.31,-2.30
11317.36,-2.13
11430.53,-2.27
11544.84,-2.58
11660.29,-3.04
11776.89,-3.52
11894.66,-3.85
12013.60,-3.98
12133.74,-3.93
12255.08,-3.86
12377.63,-3.94
12501.41,-4.14
12626.42,-4.40
12752.68,-4.64
12880.21,-4.87
13009.01,-5.09
13139.10,-5.37
13270.49,-5.72
13403.20,-6.14
13537.23,-6.40
13672.60,-6.26
13809.33,-6.00
13947.42,-5.76
14086.90,-5.47
14227.77,-5.19
14370.04,-4.94
14513.74,-4.66
14658.88,-4.44
14805.47,-4.39
14953.52,-4.48
15103.06,-4.81
15254.09,-5.35
15406.63,-6.09
15560.70,-6.96
15716.30,-7.88
15873.47,-8.81
16032.20,-9.71
16192.52,-10.54
16354.45,-11.36
16517.99,-12.24
16683.17,-13.28
16850.01,-14.50
17018.51,-14.48
17188.69,-14.85
17360.58,-15.31
17534.18,-15.73
17709.53,-15.94
17886.62,-16.03
18065.49,-16.32
18246.14,-16.52
18428.60,-16.43
18612.89,-15.97
18799.02,-15.26
18987.01,-14.48
19176.88,-14.01
19368.65,-13.48
19562.33,-12.94
19757.96,-12.62
19955.54,-12.71
