frequency,raw
20.00,11.02
20.20,10.94
20.40,10.87
20.61,10.83
20.81,10.77
21.02,10.71
21.23,10.68
21.44,10.64
21.66,10.60
21.87,10.58
22.09,10.56
22.31,10.55
22.54,10.54
22.76,10.54
22.99,10.54
23.22,10.54
23.45,10.56
23.69,10.57
23.92,10.59
24.16,10.61
24.40,10.63
24.65,10.66
24.89,10.67
25.14,10.70
25.39,10.72
25.65,10.74
25.91,10.76
26.16,10.79
26.43,10.81
26.69,10.82
26.96,10.84
27.23,10.85
27.50,10.87
27.77,10.88
28.05,10.89
28.33,10.90
28.62,10.90
28.90,10.91
29.19,10.91
29.48,10.91
29.78,10.91
30.08,10.91
30.38,10.90
30.68,10.89
30.99,10.88
31.30,10.87
31.61,10.85
31.93,10.84
32.24,10.82
32.57,10.80
32.89,10.78
33.22,10.76
33.55,10.74
33.89,10.71
34.23,10.69
34.57,10.66
34.92,10.63
35.27,10.61
35.62,10.58
35.97,10.56
36.33,10.53
36.70,10.50
37.06,10.47
37.43,10.45
37.81,10.42
38.19,10.40
38.57,10.37
38.95,10.34
39.34,10.31
39.74,10.28
40.14,10.25
40.54,10.22
40.94,10.18
41.35,10.15
41.76,10.12
42.18,10.09
42.60,10.07
43.03,10.04
43.46,10.02
43.90,9.99
44.33,9.97
44.78,9.95
45.23,9.93
45.68,9.91
46.13,9.89
46.60,9.87
47.06,9.86
47.53,9.84
48.01,9.82
48.49,9.81
48.97,9.80
49.46,9.78
49.96,9.77
50.46,9.75
50.96,9.73
51.47,9.71
51.99,9.68
52.51,9.65
53.03,9.61
53.56,9.56
54.10,9.51
54.64,9.46
55.18,9.40
55.74,9.33
56.29,9.27
56.86,9.20
57.42,9.12
58.00,9.05
58.58,8.97
59.16,8.89
59.76,8.80
60.35,8.71
60.96,8.62
61.57,8.53
62.18,8.44
62.80,8.34
63.43,8.23
64.07,8.13
64.71,8.01
65.35,7.90
66.01,7.77
66.67,7.64
67.33,7.51
68.01,7.35
68.69,7.19
69.37,7.02
70.07,6.83
70.77,6.63
71.48,6.42
72.19,6.19
72.91,5.96
73.64,5.71
74.38,5.46
75.12,5.21
75.87,4.95
76.63,4.68
77.40,4.41
78.17,4.15
78.95,3.89
79.74,3.63
80.54,3.38
81.35,3.14
82.16,2.91
82.98,2.69
83.81,2.48
84.65,2.28
85.50,2.10
86.35,1.93
87.22,1.78
88.09,1.65
88.97,1.53
89.86,1.43
90.76,1.36
91.66,1.30
92.58,1.25
93.51,1.23
94.44,1.22
95.39,1.23
96.34,1.24
97.30,1.27
98.28,1.31
99.26,1.35
100.25,1.40
101.25,1.45
102.27,1.51
103.29,1.56
104.32,1.62
105.37,1.68
106.42,1.74
107.48,1.79
108.56,1.84
109.64,1.89
110.74,1.93
111.85,1.98
112.97,2.02
114.10,2.05
115.24,2.08
116.39,2.11
117.55,2.14
118.73,2.16
119.92,2.17
121.12,2.19
122.33,2.20
123.55,2.20
124.79,2.21
126.03,2.21
127.29,2.21
128.57,2.20
129.85,2.20
131.15,2.19
132.46,2.18
133.79,2.17
135.12,2.16
136.48,2.14
137.84,2.13
139.22,2.12
140.61,2.10
142.02,2.09
143.44,2.08
144.87,2.06
146.32,2.05
147.78,2.04
149.26,2.03
150.75,2.02
152.26,2.01
153.78,2.00
155.32,2.00
156.88,1.99
158.44,1.99
160.03,1.99
161.63,2.00
163.24,2.00
164.88,2.01
166.53,2.01
168.19,2.02
169.87,2.03
171.57,2.04
173.29,2.05
175.02,2.06
176.77,2.08
178.54,2.09
180.32,2.11
182.13,2.12
183.95,2.14
185.79,2.16
187.65,2.18
189.52,2.19
191.42,2.21
193.33,2.23
195.27,2.24
197.22,2.26
199.19,2.27
201.18,2.29
203.19,2.30
205.23,2.32
207.28,2.33
209.35,2.34
211.44,2.35
213.56,2.36
215.69,2.37
217.85,2.37
220.03,2.38
222.23,2.38
224.45,2.38
226.70,2.38
228.96,2.37
231.25,2.37
233.57,2.36
235.90,2.35
238.26,2.35
240.64,2.34
243.05,2.33
245.48,2.32
247.93,2.30
250.41,2.29
252.92,2.27
255.45,2.26
258.00,2.24
260.58,2.22
263.19,2.20
265.82,2.18
268.48,2.15
271.16,2.13
273.87,2.10
276.61,2.08
279.38,2.05
282.17,2.02
284.99,1.99
287.84,1.96
290.72,1.93
293.63,1.89
296.57,1.86
299.53,1.83
302.53,1.79
305.55,1.76
308.61,1.72
311.69,1.68
314.81,1.65
317.96,1.61
321.14,1.57
324.35,1.53
327.59,1.49
330.87,1.45
334.18,1.41
337.52,1.37
340.90,1.33
344.30,1.29
347.75,1.24
351.23,1.20
354.74,1.15
358.28,1.10
361.87,1.05
365.49,1.00
369.14,0.94
372.83,0.89
376.56,0.83
380.33,0.77
384.13,0.71
387.97,0.64
391.85,0.58
395.77,0.52
399.73,0.47
403.72,0.41
407.76,0.36
411.84,0.31
415.96,0.26
420.12,0.22
424.32,0.17
428.56,0.13
432.85,0.09
437.18,0.05
441.55,0.02
445.96,-0.02
450.42,-0.06
454.93,-0.10
459.48,-0.13
464.07,-0.17
468.71,-0.20
473.40,-0.23
478.13,-0.26
482.91,-0.29
487.74,-0.32
492.62,-0.34
497.55,-0.37
502.52,-0.39
507.55,-0.41
512.62,-0.42
517.75,-0.44
522.93,-0.45
528.16,-0.46
533.44,-0.46
538.77,-0.47
544.16,-0.48
549.60,-0.48
555.10,-0.49
560.65,-0.50
566.25,-0.50
571.92,-0.51
577.64,-0.53
583.41,-0.54
589.25,-0.55
595.14,-0.57
601.09,-0.59
607.10,-0.60
613.17,-0.62
619.30,-0.64
625.50,-0.66
631.75,-0.68
638.07,-0.69
644.45,-0.71
650.89,-0.73
657.40,-0.74
663.98,-0.76
670.62,-0.79
677.32,-0.81
684.10,-0.85
690.94,-0.88
697.85,-0.92
704.83,-0.96
711.87,-1.00
718.99,-1.04
726.18,-1.08
733.44,-1.12
740.78,-1.16
748.19,-1.20
755.67,-1.24
763.23,-1.27
770.86,-1.29
778.57,-1.31
786.35,-1.33
794.22,-1.33
802.16,-1.34
810.18,-1.33
818.28,-1.32
826.46,-1.30
834.73,-1.27
843.08,-1.24
851.51,-1.20
860.02,-1.15
868.62,-1.10
877.31,-1.04
886.08,-0.98
894.94,-0.91
903.89,-0.84
912.93,-0.76
922.06,-0.68
931.28,-0.60
940.59,-0.52
950.00,-0.43
959.50,-0.34
969.09,-0.25
978.78,-0.17
988.57,-0.09
998.46,-0.01
1008.44,0.07
1018.53,0.15
1028.71,0.24
1039.00,0.33
1049.39,0.43
1059.88,0.51
1070.48,0.59
1081.19,0.68
1092.00,0.76
1102.92,0.84
1113.95,0.93
1125.09,1.03
1136.34,1.13
1147.70,1.22
1159.18,1.31
1170.77,1.39
1182.48,1.45
1194.30,1.50
1206.25,1.55
1218.31,1.59
1230.49,1.63
1242.80,1.65
1255.22,1.67
1267.78,1.66
1280.45,1.62
1293.26,1.56
1306.19,1.49
1319.25,1.43
1332.45,1.39
1345.77,1.38
1359.23,1.39
1372.82,1.43
1386.55,1.47
1400.41,1.51
1414.42,1.54
1428.56,1.56
1442.85,1.56
1457.28,1.56
1471.85,1.55
1486.57,1.53
1501.43,1.51
1516.45,1.48
1531.61,1.45
1546.93,1.42
1562.40,1.39
1578.02,1.36
1593.80,1.34
1609.74,1.32
1625.84,1.31
1642.10,1.30
1658.52,1.31
1675.10,1.33
1691.85,1.35
1708.77,1.38
1725.86,1.43
1743.12,1.48
1760.55,1.55
1778.15,1.64
1795.94,1.73
1813.90,1.84
1832.03,1.96
1850.36,2.10
1868.86,2.25
1887.55,2.41
1906.42,2.59
1925.49,2.79
1944.74,3.01
1964.19,3.24
1983.83,3.50
2003.67,3.77
2023.71,4.06
2043.94,4.36
2064.38,4.68
2085.03,5.00
2105.88,5.33
2126.94,5.66
2148.20,5.98
2169.69,6.29
2191.38,6.59
2213.30,6.87
2235.43,7.13
2257.78,7.39
2280.36,7.62
2303.17,7.84
2326.20,8.05
2349.46,8.24
2372.95,8.41
2396.68,8.57
2420.65,8.71
2444.86,8.84
2469.31,8.95
2494.00,9.07
2518.94,9.18
2544.13,9.30
2569.57,9.42
2595.27,9.56
2621.22,9.71
2647.43,9.87
2673.90,10.03
2700.64,10.19
2727.65,10.35
2754.93,10.49
2782.48,10.63
2810.30,10.75
2838.40,10.87
2866.79,10.97
2895.46,11.07
2924.41,11.16
2953.65,11.26
2983.19,11.36
3013.02,11.46
3043.15,11.56
3073.58,11.66
3104.32,11.76
3135.36,11.84
3166.72,11.91
3198.38,11.96
3230.37,11.99
3262.67,11.98
3295.30,11.96
3328.25,11.91
3361.53,11.83
3395.15,11.73
3429.10,11.61
3463.39,11.46
3498.03,11.29
3533.01,11.10
3568.34,10.87
3604.02,10.61
3640.06,10.32
3676.46,9.99
3713.22,9.64
3750.36,9.24
3787.86,8.81
3825.74,8.35
3864.00,7.85
3902.64,7.32
3941.66,6.77
3981.08,6.18
4020.89,5.55
4061.10,4.91
4101.71,4.24
4142.73,3.57
4184.15,2.92
4226.00,2.32
4268.26,1.82
4310.94,1.45
4354.05,1.22
4397.59,1.19
4441.56,1.34
4485.98,1.66
4530.84,2.12
4576.15,2.67
4621.91,3.28
4668.13,3.89
4714.81,4.48
4761.96,4.98
4809.58,5.41
4857.67,5.75
4906.25,5.95
4955.31,6.05
5004.87,6.03
5054.91,5.89
5105.46,5.64
5156.52,5.28
5208.08,4.81
5260.16,4.25
5312.77,3.61
5365.89,2.92
5419.55,2.23
5473.75,1.61
5528.49,1.21
5583.77,1.06
5639.61,1.23
5696.00,1.75
5752.96,2.42
5810.49,3.22
5868.60,4.05
5927.28,4.90
5986.56,5.73
6046.42,6.53
6106.89,7.29
6167.96,7.96
6229.64,8.52
6291.93,8.96
6354.85,9.23
6418.40,9.33
6482.58,9.28
6547.41,9.04
6612.88,8.65
6679.01,8.16
6745.80,7.56
6813.26,6.93
6881.39,6.31
6950.21,5.72
7019.71,5.18
7089.91,4.69
7160.81,4.24
7232.41,3.83
7304.74,3.49
7377.79,3.25
7451.56,3.19
7526.08,3.36
7601.34,3.79
7677.35,4.49
7754.13,5.34
7831.67,6.26
7909.98,7.16
7989.08,7.99
8068.98,8.61
8149.67,9.09
8231.16,9.41
8313.47,9.49
8396.61,9.45
8480.57,9.30
8565.38,9.08
8651.03,8.85
8737.54,8.62
8824.92,8.40
8913.17,8.16
9002.30,7.87
9092.32,7.51
9183.25,7.07
9275.08,6.55
9367.83,6.01
9461.51,5.47
9556.12,4.99
9651.68,4.68
9748.20,4.50
9845.68,4.49
9944.14,4.71
10043.58,4.98
10144.02,5.30
10245.46,5.56
10347.91,5.72
10451.39,5.73
10555.91,5.58
10661.46,5.29
10768.08,4.82
10875.76,4.19
10984.52,3.42
11094.36,2.60
11205.31,1.85
11317.36,1.27
11430.53,1.02
11544.84,1.08
11660.29,1.33
11776.89,1.61
11894.66,1.69
12013.60,1.71
12133.74,1.77
12255.08,2.29
12377.63,3.20
12501.41,4.43
12626.42,5.78
12752.68,6.94
12880.21,7.82
13009.01,8.34
13139.10,8.59
13270.49,8.46
13403.20,8.02
13537.23,7.33
13672.60,6.55
13809.33,5.79
13947.42,5.09
14086.90,4.47
14227.77,4.00
14370.04,3.67
14513.74,3.46
14658.88,3.18
14805.47,2.83
14953.52,2.40
15103.06,1.96
15254.09,1.49
15406.63,0.94
15560.70,0.26
15716.30,-0.56
15873.47,-1.48
16032.20,-2.41
16192.52,-3.21
16354.45,-3.54
16517.99,-3.61
16683.17,-3.53
16850.01,-3.20
17018.51,-2.74
17188.69,-2.18
17360.58,-1.81
17534.18,-1.61
17709.53,-1.58
17886.62,-1.73
18065.49,-1.97
18246.14,-2.27
18428.60,-2.43
18612.89,-2.22
18799.02,-1.46
18987.01,-0.53
19176.88,0.37
19368.65,1.02
19562.33,1.48
19757.96,1.84
19955.54,2.14
