frequency,raw
20.00,7.11
20.20,7.14
20.40,7.17
20.61,7.20
20.81,7.23
21.02,7.26
21.23,7.28
21.44,7.31
21.66,7.33
21.87,7.36
22.09,7.38
22.31,7.41
22.54,7.43
22.76,7.45
22.99,7.47
23.22,7.49
23.45,7.51
23.69,7.53
23.92,7.55
24.16,7.56
24.40,7.58
24.65,7.60
24.89,7.61
25.14,7.63
25.39,7.64
25.65,7.66
25.91,7.67
26.16,7.69
26.43,7.70
26.69,7.71
26.96,7.72
27.23,7.73
27.50,7.75
27.77,7.75
28.05,7.76
28.33,7.78
28.62,7.79
28.90,7.80
29.19,7.81
29.48,7.82
29.78,7.84
30.08,7.85
30.38,7.86
30.68,7.88
30.99,7.89
31.30,7.90
31.61,7.92
31.93,7.93
32.24,7.95
32.57,7.96
32.89,7.98
33.22,8.00
33.55,8.02
33.89,8.03
34.23,8.05
34.57,8.07
34.92,8.09
35.27,8.11
35.62,8.13
35.97,8.15
36.33,8.17
36.70,8.18
37.06,8.20
37.43,8.22
37.81,8.24
38.19,8.26
38.57,8.27
38.95,8.29
39.34,8.31
39.74,8.32
40.14,8.34
40.54,8.35
40.94,8.36
41.35,8.38
41.76,8.39
42.18,8.41
42.60,8.42
43.03,8.43
43.46,8.44
43.90,8.45
44.33,8.46
44.78,8.47
45.23,8.48
45.68,8.49
46.13,8.50
46.60,8.51
47.06,8.52
47.53,8.53
48.01,8.53
48.49,8.54
48.97,8.55
49.46,8.55
49.96,8.56
50.46,8.56
50.96,8.57
51.47,8.57
51.99,8.58
52.51,8.58
53.03,8.58
53.56,8.59
54.10,8.59
54.64,8.59
55.18,8.59
55.74,8.59
56.29,8.59
56.86,8.59
57.42,8.59
58.00,8.59
58.58,8.59
59.16,8.59
59.76,8.59
60.35,8.59
60.96,8.59
61.57,8.58
62.18,8.58
62.80,8.58
63.43,8.57
64.07,8.57
64.71,8.57
65.35,8.56
66.01,8.56
66.67,8.55
67.33,8.55
68.01,8.54
68.69,8.53
69.37,8.53
70.07,8.52
70.77,8.51
71.48,8.50
72.19,8.49
72.91,8.47
73.64,8.46
74.38,8.45
75.12,8.43
75.87,8.42
76.63,8.40
77.40,8.39
78.17,8.37
78.95,8.35
79.74,8.34
80.54,8.32
81.35,8.30
82.16,8.29
82.98,8.27
83.81,8.25
84.65,8.24
85.50,8.22
86.35,8.21
87.22,8.19
88.09,8.18
88.97,8.17
89.86,8.15
90.76,8.14
91.66,8.13
92.58,8.12
93.51,8.11
94.44,8.11
95.39,8.10
96.34,8.09
97.30,8.09
98.28,8.09
99.26,8.09
100.25,8.09
101.25,8.09
102.27,8.10
103.29,8.10
104.32,8.11
105.37,8.12
106.42,8.12
107.48,8.13
108.56,8.14
109.64,8.15
110.74,8.16
111.85,8.16
112.97,8.17
114.10,8.18
115.24,8.19
116.39,8.20
117.55,8.21
118.73,8.22
119.92,8.22
121.12,8.23
122.33,8.24
123.55,8.24
124.79,8.25
126.03,8.25
127.29,8.26
128.57,8.26
129.85,8.26
131.15,8.26
132.46,8.26
133.79,8.26
135.12,8.26
136.48,8.25
137.84,8.25
139.22,8.24
140.61,8.24
142.02,8.23
143.44,8.22
144.87,8.21
146.32,8.20
147.78,8.19
149.26,8.18
150.75,8.16
152.26,8.14
153.78,8.12
155.32,8.11
156.88,8.08
158.44,8.06
160.03,8.04
161.63,8.01
163.24,7.99
164.88,7.96
166.53,7.94
168.19,7.91
169.87,7.88
171.57,7.86
173.29,7.83
175.02,7.80
176.77,7.77
178.54,7.74
180.32,7.70
182.13,7.67
183.95,7.64
185.79,7.60
187.65,7.56
189.52,7.52
191.42,7.48
193.33,7.44
195.27,7.40
197.22,7.35
199.19,7.31
201.18,7.26
203.19,7.21
205.23,7.16
207.28,7.11
209.35,7.05
211.44,7.00
213.56,6.95
215.69,6.89
217.85,6.84
220.03,6.78
222.23,6.73
224.45,6.67
226.70,6.61
228.96,6.56
231.25,6.50
233.57,6.45
235.90,6.39
238.26,6.33
240.64,6.27
243.05,6.21
245.48,6.15
247.93,6.09
250.41,6.03
252.92,5.97
255.45,5.90
258.00,5.84
260.58,5.77
263.19,5.71
265.82,5.64
268.48,5.57
271.16,5.50
273.87,5.43
276.61,5.36
279.38,5.29
282.17,5.21
284.99,5.14
287.84,5.06
290.72,4.98
293.63,4.90
296.57,4.81
299.53,4.73
302.53,4.64
305.55,4.55
308.61,4.46
311.69,4.37
314.81,4.28
317.96,4.18
321.14,4.09
324.35,3.99
327.59,3.89
330.87,3.79
334.18,3.69
337.52,3.59
340.90,3.48
344.30,3.37
347.75,3.26
351.23,3.13
354.74,3.00
358.28,2.82
361.87,2.64
365.49,2.46
369.14,2.28
372.83,2.09
376.56,1.91
380.33,1.73
384.13,1.56
387.97,1.40
391.85,1.24
395.77,1.10
399.73,0.97
403.72,0.86
407.76,0.76
411.84,0.66
415.96,0.58
420.12,0.50
424.32,0.43
428.56,0.36
432.85,0.30
437.18,0.23
441.55,0.16
445.96,0.10
450.42,0.06
454.93,0.03
459.48,-0.01
464.07,-0.04
468.71,-0.08
473.40,-0.11
478.13,-0.15
482.91,-0.19
487.74,-0.23
492.62,-0.28
497.55,-0.32
502.52,-0.37
507.55,-0.42
512.62,-0.47
517.75,-0.52
522.93,-0.57
528.16,-0.62
533.44,-0.67
538.77,-0.72
544.16,-0.77
549.60,-0.82
555.10,-0.86
560.65,-0.91
566.25,-0.95
571.92,-1.00
577.64,-1.04
583.41,-1.08
589.25,-1.12
595.14,-1.16
601.09,-1.20
607.10,-1.23
613.17,-1.27
619.30,-1.30
625.50,-1.34
631.75,-1.37
638.07,-1.40
644.45,-1.43
650.89,-1.45
657.40,-1.48
663.98,-1.50
670.62,-1.52
677.32,-1.54
684.10,-1.55
690.94,-1.56
697.85,-1.57
704.83,-1.58
711.87,-1.58
718.99,-1.58
726.18,-1.57
733.44,-1.57
740.78,-1.56
748.19,-1.55
755.67,-1.53
763.23,-1.52
770.86,-1.50
778.57,-1.48
786.35,-1.46
794.22,-1.44
802.16,-1.42
810.18,-1.39
818.28,-1.36
826.46,-1.33
834.73,-1.29
843.08,-1.25
851.51,-1.21
860.02,-1.16
868.62,-1.11
877.31,-1.05
886.08,-0.99
894.94,-0.92
903.89,-0.84
912.93,-0.76
922.06,-0.68
931.28,-0.60
940.59,-0.52
950.00,-0.43
959.50,-0.34
969.09,-0.26
978.78,-0.18
988.57,-0.09
998.46,-0.01
1008.44,0.07
1018.53,0.15
1028.71,0.23
1039.00,0.32
1049.39,0.41
1059.88,0.50
1070.48,0.59
1081.19,0.69
1092.00,0.79
1102.92,0.90
1113.95,1.01
1125.09,1.12
1136.34,1.24
1147.70,1.35
1159.18,1.47
1170.77,1.59
1182.48,1.71
1194.30,1.83
1206.25,1.94
1218.31,2.06
1230.49,2.17
1242.80,2.29
1255.22,2.40
1267.78,2.51
1280.45,2.61
1293.26,2.72
1306.19,2.82
1319.25,2.92
1332.45,3.02
1345.77,3.12
1359.23,3.21
1372.82,3.31
1386.55,3.41
1400.41,3.50
1414.42,3.59
1428.56,3.68
1442.85,3.77
1457.28,3.85
1471.85,3.93
1486.57,4.00
1501.43,4.08
1516.45,4.16
1531.61,4.25
1546.93,4.35
1562.40,4.45
1578.02,4.57
1593.80,4.69
1609.74,4.82
1625.84,4.95
1642.10,5.07
1658.52,5.20
1675.10,5.32
1691.85,5.43
1708.77,5.53
1725.86,5.62
1743.12,5.71
1760.55,5.78
1778.15,5.85
1795.94,5.91
1813.90,5.96
1832.03,6.01
1850.36,6.06
1868.86,6.11
1887.55,6.16
1906.42,6.22
1925.49,6.30
1944.74,6.38
1964.19,6.48
1983.83,6.59
2003.67,6.70
2023.71,6.83
2043.94,6.95
2064.38,7.08
2085.03,7.21
2105.88,7.34
2126.94,7.47
2148.20,7.61
2169.69,7.74
2191.38,7.88
2213.30,8.02
2235.43,8.17
2257.78,8.31
2280.36,8.46
2303.17,8.60
2326.20,8.74
2349.46,8.88
2372.95,9.03
2396.68,9.17
2420.65,9.31
2444.86,9.46
2469.31,9.61
2494.00,9.77
2518.94,9.94
2544.13,10.12
2569.57,10.31
2595.27,10.51
2621.22,10.71
2647.43,10.91
2673.90,11.12
2700.64,11.33
2727.65,11.53
2754.93,11.74
2782.48,11.94
2810.30,12.12
2838.40,12.30
2866.79,12.47
2895.46,12.62
2924.41,12.75
2953.65,12.87
2983.19,12.97
3013.02,13.05
3043.15,13.12
3073.58,13.15
3104.32,13.17
3135.36,13.18
3166.72,13.16
3198.38,13.13
3230.37,13.08
3262.67,13.01
3295.30,12.92
3328.25,12.82
3361.53,12.70
3395.15,12.55
3429.10,12.37
3463.39,12.18
3498.03,11.95
3533.01,11.71
3568.34,11.46
3604.02,11.19
3640.06,10.93
3676.46,10.67
3713.22,10.42
3750.36,10.20
3787.86,9.98
3825.74,9.79
3864.00,9.60
3902.64,9.43
3941.66,9.27
3981.08,9.12
4020.89,8.98
4061.10,8.86
4101.71,8.75
4142.73,8.66
4184.15,8.57
4226.00,8.51
4268.26,8.45
4310.94,8.39
4354.05,8.34
4397.59,8.29
4441.56,8.24
4485.98,8.18
4530.84,8.13
4576.15,8.08
4621.91,8.02
4668.13,7.96
4714.81,7.88
4761.96,7.80
4809.58,7.69
4857.67,7.56
4906.25,7.41
4955.31,7.25
5004.87,7.07
5054.91,6.89
5105.46,6.70
5156.52,6.52
5208.08,6.35
5260.16,6.19
5312.77,6.06
5365.89,5.94
5419.55,5.85
5473.75,5.77
5528.49,5.71
5583.77,5.67
5639.61,5.65
5696.00,5.65
5752.96,5.67
5810.49,5.71
5868.60,5.76
5927.28,5.82
5986.56,5.89
6046.42,5.97
6106.89,6.06
6167.96,6.15
6229.64,6.25
6291.93,6.35
6354.85,6.45
6418.40,6.56
6482.58,6.66
6547.41,6.77
6612.88,6.85
6679.01,6.93
6745.80,6.99
6813.26,7.03
6881.39,7.05
6950.21,7.05
7019.71,7.03
7089.91,6.99
7160.81,6.94
7232.41,6.88
7304.74,6.81
7377.79,6.74
7451.56,6.67
7526.08,6.62
7601.34,6.58
7677.35,6.56
7754.13,6.58
7831.67,6.63
7909.98,6.71
7989.08,6.84
8068.98,7.00
8149.67,7.18
8231.16,7.37
8313.47,7.53
8396.61,7.64
8480.57,7.68
8565.38,7.54
8651.03,7.30
8737.54,6.96
8824.92,6.44
8913.17,5.85
9002.30,5.20
9092.32,4.47
9183.25,3.72
9275.08,2.97
9367.83,2.23
9461.51,1.51
9556.12,0.81
9651.68,0.14
9748.20,-0.48
9845.68,-1.07
9944.14,-1.61
10043.58,-2.06
10144.02,-2.45
10245.46,-2.80
10347.91,-3.10
10451.39,-3.38
10555.91,-3.65
10661.46,-3.91
10768.08,-4.16
10875.76,-4.39
10984.52,-4.59
11094.36,-4.74
11205.31,-4.86
11317.36,-4.92
11430.53,-4.90
11544.84,-4.83
11660.29,-4.71
11776.89,-4.53
11894.66,-4.34
12013.60,-4.13
12133.74,-3.91
12255.08,-3.68
12377.63,-3.45
12501.41,-3.21
12626.42,-2.98
12752.68,-2.76
12880.21,-2.55
13009.01,-2.37
13139.10,-2.20
13270.49,-2.07
13403.20,-1.98
13537.23,-1.93
13672.60,-1.90
13809.33,-1.94
13947.42,-2.02
14086.90,-2.16
14227.77,-2.39
14370.04,-2.73
14513.74,-3.16
14658.88,-3.73
14805.47,-4.41
14953.52,-5.13
15103.06,-5.88
15254.09,-6.56
15406.63,-7.16
15560.70,-7.67
15716.30,-8.01
15873.47,-8.25
16032.20,-8.41
16192.52,-8.48
16354.45,-8.52
16517.99,-8.54
16683.17,-8.59
16850.01,-8.65
17018.51,-8.72
17188.69,-8.79
17360.58,-8.85
17534.18,-8.95
17709.53,-9.08
17886.62,-9.33
18065.49,-9.65
18246.14,-10.01
18428.60,-10.43
18612.89,-10.84
18799.02,-11.24
18987.01,-11.58
19176.88,-11.88
19368.65,-12.15
19562.33,-12.41
19757.96,-12.73
19955.54,-13.17
