frequency,raw
20.00,5.52
20.20,5.58
20.40,5.64
20.61,5.70
20.81,5.75
21.02,5.80
21.23,5.86
21.44,5.91
21.66,5.96
21.87,6.00
22.09,6.04
22.31,6.09
22.54,6.13
22.76,6.17
22.99,6.21
23.22,6.24
23.45,6.28
23.69,6.31
23.92,6.34
24.16,6.37
24.40,6.40
24.65,6.43
24.89,6.45
25.14,6.47
25.39,6.49
25.65,6.51
25.91,6.53
26.16,6.54
26.43,6.56
26.69,6.57
26.96,6.57
27.23,6.58
27.50,6.59
27.77,6.60
28.05,6.60
28.33,6.61
28.62,6.61
28.90,6.61
29.19,6.62
29.48,6.62
29.78,6.62
30.08,6.61
30.38,6.61
30.68,6.61
30.99,6.60
31.30,6.60
31.61,6.59
31.93,6.58
32.24,6.57
32.57,6.56
32.89,6.55
33.22,6.54
33.55,6.52
33.89,6.51
34.23,6.49
34.57,6.48
34.92,6.46
35.27,6.45
35.62,6.43
35.97,6.41
36.33,6.39
36.70,6.37
37.06,6.35
37.43,6.32
37.81,6.29
38.19,6.26
38.57,6.22
38.95,6.19
39.34,6.15
39.74,6.11
40.14,6.06
40.54,6.02
40.94,5.97
41.35,5.92
41.76,5.87
42.18,5.83
42.60,5.78
43.03,5.74
43.46,5.70
43.90,5.66
44.33,5.63
44.78,5.60
45.23,5.58
45.68,5.57
46.13,5.56
46.60,5.56
47.06,5.57
47.53,5.58
48.01,5.60
48.49,5.62
48.97,5.64
49.46,5.67
49.96,5.69
50.46,5.70
50.96,5.72
51.47,5.73
51.99,5.75
52.51,5.76
53.03,5.77
53.56,5.78
54.10,5.80
54.64,5.83
55.18,5.87
55.74,5.93
56.29,5.99
56.86,6.08
57.42,6.18
58.00,6.29
58.58,6.41
59.16,6.54
59.76,6.67
60.35,6.80
60.96,6.92
61.57,7.03
62.18,7.12
62.80,7.18
63.43,7.23
64.07,7.24
64.71,7.23
65.35,7.19
66.01,7.11
66.67,7.01
67.33,6.88
68.01,6.74
68.69,6.58
69.37,6.42
70.07,6.25
70.77,6.09
71.48,5.94
72.19,5.81
72.91,5.69
73.64,5.59
74.38,5.50
75.12,5.41
75.87,5.33
76.63,5.23
77.40,5.14
78.17,5.03
78.95,4.91
79.74,4.79
80.54,4.66
81.35,4.55
82.16,4.44
82.98,4.34
83.81,4.26
84.65,4.20
85.50,4.15
86.35,4.10
87.22,4.04
88.09,3.99
88.97,3.92
89.86,3.84
90.76,3.75
91.66,3.65
92.58,3.56
93.51,3.47
94.44,3.39
95.39,3.33
96.34,3.27
97.30,3.22
98.28,3.17
99.26,3.12
100.25,3.06
101.25,2.99
102.27,2.92
103.29,2.84
104.32,2.77
105.37,2.72
106.42,2.67
107.48,2.64
108.56,2.61
109.64,2.57
110.74,2.53
111.85,2.48
112.97,2.42
114.10,2.35
115.24,2.28
116.39,2.22
117.55,2.17
118.73,2.12
119.92,2.08
121.12,2.04
122.33,1.99
123.55,1.94
124.79,1.88
126.03,1.83
127.29,1.77
128.57,1.73
129.85,1.69
131.15,1.66
132.46,1.62
133.79,1.57
135.12,1.52
136.48,1.46
137.84,1.41
139.22,1.36
140.61,1.32
142.02,1.29
143.44,1.26
144.87,1.22
146.32,1.18
147.78,1.14
149.26,1.10
150.75,1.06
152.26,1.02
153.78,0.98
155.32,0.94
156.88,0.89
158.44,0.84
160.03,0.79
161.63,0.74
163.24,0.70
164.88,0.66
166.53,0.63
168.19,0.59
169.87,0.55
171.57,0.52
173.29,0.48
175.02,0.45
176.77,0.42
178.54,0.38
180.32,0.35
182.13,0.32
183.95,0.29
185.79,0.26
187.65,0.24
189.52,0.22
191.42,0.20
193.33,0.18
195.27,0.16
197.22,0.14
199.19,0.12
201.18,0.09
203.19,0.05
205.23,0.01
207.28,-0.02
209.35,-0.06
211.44,-0.11
213.56,-0.15
215.69,-0.19
217.85,-0.22
220.03,-0.25
222.23,-0.28
224.45,-0.30
226.70,-0.32
228.96,-0.34
231.25,-0.36
233.57,-0.37
235.90,-0.39
238.26,-0.41
240.64,-0.42
243.05,-0.43
245.48,-0.44
247.93,-0.45
250.41,-0.47
252.92,-0.48
255.45,-0.49
258.00,-0.50
260.58,-0.50
263.19,-0.49
265.82,-0.49
268.48,-0.48
271.16,-0.48
273.87,-0.47
276.61,-0.47
279.38,-0.46
282.17,-0.46
284.99,-0.45
287.84,-0.44
290.72,-0.43
293.63,-0.43
296.57,-0.42
299.53,-0.40
302.53,-0.39
305.55,-0.38
308.61,-0.37
311.69,-0.36
314.81,-0.35
317.96,-0.34
321.14,-0.33
324.35,-0.33
327.59,-0.33
330.87,-0.32
334.18,-0.32
337.52,-0.33
340.90,-0.33
344.30,-0.34
347.75,-0.34
351.23,-0.35
354.74,-0.35
358.28,-0.36
361.87,-0.36
365.49,-0.37
369.14,-0.37
372.83,-0.37
376.56,-0.37
380.33,-0.37
384.13,-0.37
387.97,-0.37
391.85,-0.37
395.77,-0.38
399.73,-0.40
403.72,-0.41
407.76,-0.44
411.84,-0.47
415.96,-0.50
420.12,-0.54
424.32,-0.58
428.56,-0.62
432.85,-0.67
437.18,-0.71
441.55,-0.75
445.96,-0.79
450.42,-0.83
454.93,-0.87
459.48,-0.90
464.07,-0.94
468.71,-0.97
473.40,-1.00
478.13,-1.02
482.91,-1.05
487.74,-1.07
492.62,-1.09
497.55,-1.11
502.52,-1.13
507.55,-1.15
512.62,-1.17
517.75,-1.18
522.93,-1.20
528.16,-1.22
533.44,-1.24
538.77,-1.25
544.16,-1.27
549.60,-1.29
555.10,-1.31
560.65,-1.33
566.25,-1.36
571.92,-1.38
577.64,-1.41
583.41,-1.44
589.25,-1.47
595.14,-1.51
601.09,-1.54
607.10,-1.57
613.17,-1.60
619.30,-1.62
625.50,-1.65
631.75,-1.67
638.07,-1.68
644.45,-1.69
650.89,-1.69
657.40,-1.69
663.98,-1.68
670.62,-1.67
677.32,-1.64
684.10,-1.62
690.94,-1.59
697.85,-1.55
704.83,-1.51
711.87,-1.47
718.99,-1.42
726.18,-1.37
733.44,-1.32
740.78,-1.27
748.19,-1.22
755.67,-1.17
763.23,-1.11
770.86,-1.06
778.57,-1.00
786.35,-0.95
794.22,-0.90
802.16,-0.85
810.18,-0.80
818.28,-0.74
826.46,-0.69
834.73,-0.64
843.08,-0.59
851.51,-0.54
860.02,-0.49
868.62,-0.45
877.31,-0.41
886.08,-0.37
894.94,-0.33
903.89,-0.30
912.93,-0.27
922.06,-0.24
931.28,-0.22
940.59,-0.19
950.00,-0.16
959.50,-0.14
969.09,-0.11
978.78,-0.08
988.57,-0.04
998.46,-0.01
1008.44,0.04
1018.53,0.09
1028.71,0.14
1039.00,0.20
1049.39,0.27
1059.88,0.33
1070.48,0.39
1081.19,0.46
1092.00,0.53
1102.92,0.60
1113.95,0.66
1125.09,0.74
1136.34,0.81
1147.70,0.89
1159.18,0.97
1170.77,1.06
1182.48,1.15
1194.30,1.25
1206.25,1.34
1218.31,1.44
1230.49,1.54
1242.80,1.64
1255.22,1.74
1267.78,1.84
1280.45,1.94
1293.26,2.04
1306.19,2.13
1319.25,2.22
1332.45,2.31
1345.77,2.40
1359.23,2.49
1372.82,2.60
1386.55,2.72
1400.41,2.85
1414.42,2.98
1428.56,3.11
1442.85,3.25
1457.28,3.38
1471.85,3.51
1486.57,3.64
1501.43,3.77
1516.45,3.89
1531.61,4.01
1546.93,4.13
1562.40,4.24
1578.02,4.35
1593.80,4.46
1609.74,4.57
1625.84,4.67
1642.10,4.77
1658.52,4.86
1675.10,4.95
1691.85,5.04
1708.77,5.13
1725.86,5.22
1743.12,5.31
1760.55,5.39
1778.15,5.47
1795.94,5.53
1813.90,5.59
1832.03,5.66
1850.36,5.73
1868.86,5.81
1887.55,5.89
1906.42,5.98
1925.49,6.06
1944.74,6.14
1964.19,6.22
1983.83,6.30
2003.67,6.38
2023.71,6.47
2043.94,6.57
2064.38,6.66
2085.03,6.75
2105.88,6.84
2126.94,6.93
2148.20,7.01
2169.69,7.10
2191.38,7.19
2213.30,7.28
2235.43,7.38
2257.78,7.49
2280.36,7.60
2303.17,7.72
2326.20,7.83
2349.46,7.94
2372.95,8.04
2396.68,8.14
2420.65,8.23
2444.86,8.30
2469.31,8.38
2494.00,8.46
2518.94,8.53
2544.13,8.61
2569.57,8.69
2595.27,8.77
2621.22,8.87
2647.43,8.97
2673.90,9.06
2700.64,9.14
2727.65,9.19
2754.93,9.21
2782.48,9.21
2810.30,9.17
2838.40,9.10
2866.79,9.00
2895.46,8.85
2924.41,8.66
2953.65,8.41
2983.19,8.08
3013.02,7.70
3043.15,7.26
3073.58,6.84
3104.32,6.49
3135.36,6.35
3166.72,6.45
3198.38,6.75
3230.37,7.14
3262.67,7.55
3295.30,7.94
3328.25,8.30
3361.53,8.60
3395.15,8.87
3429.10,9.09
3463.39,9.27
3498.03,9.41
3533.01,9.51
3568.34,9.53
3604.02,9.49
3640.06,9.37
3676.46,9.20
3713.22,8.98
3750.36,8.72
3787.86,8.43
3825.74,8.13
3864.00,7.81
3902.64,7.48
3941.66,7.17
3981.08,6.86
4020.89,6.56
4061.10,6.25
4101.71,5.94
4142.73,5.63
4184.15,5.32
4226.00,5.01
4268.26,4.73
4310.94,4.48
4354.05,4.28
4397.59,4.14
4441.56,4.07
4485.98,4.02
4530.84,3.98
4576.15,3.92
4621.91,3.86
4668.13,3.80
4714.81,3.78
4761.96,3.85
4809.58,3.96
4857.67,4.11
4906.25,4.29
4955.31,4.46
5004.87,4.60
5054.91,4.70
5105.46,4.78
5156.52,4.84
5208.08,4.90
5260.16,4.97
5312.77,5.01
5365.89,5.03
5419.55,4.99
5473.75,4.90
5528.49,4.76
5583.77,4.59
5639.61,4.40
5696.00,4.24
5752.96,4.13
5810.49,4.08
5868.60,4.15
5927.28,4.31
5986.56,4.57
6046.42,4.96
6106.89,5.46
6167.96,6.06
6229.64,6.76
6291.93,7.54
6354.85,8.38
6418.40,9.25
6482.58,10.13
6547.41,10.97
6612.88,11.75
6679.01,12.46
6745.80,13.03
6813.26,13.44
6881.39,13.70
6950.21,13.76
7019.71,13.64
7089.91,13.36
7160.81,12.96
7232.41,12.45
7304.74,11.90
7377.79,11.32
7451.56,10.75
7526.08,10.22
7601.34,9.75
7677.35,9.36
7754.13,9.06
7831.67,8.86
7909.98,8.74
7989.08,8.70
8068.98,8.74
8149.67,8.80
8231.16,8.88
8313.47,8.90
8396.61,8.84
8480.57,8.66
8565.38,8.33
8651.03,7.85
8737.54,7.25
8824.92,6.57
8913.17,5.84
9002.30,5.11
9092.32,4.40
9183.25,3.73
9275.08,3.11
9367.83,2.55
9461.51,2.05
9556.12,1.61
9651.68,1.24
9748.20,0.94
9845.68,0.69
9944.14,0.53
10043.58,0.42
10144.02,0.38
10245.46,0.42
10347.91,0.53
10451.39,0.68
10555.91,0.85
10661.46,1.00
10768.08,1.06
10875.76,0.99
10984.52,0.73
11094.36,0.17
11205.31,-0.66
11317.36,-1.72
11430.53,-3.01
11544.84,-4.45
11660.29,-6.03
11776.89,-7.71
11894.66,-9.43
12013.60,-11.04
12133.74,-12.33
12255.08,-12.91
12377.63,-12.89
12501.41,-12.40
12626.42,-11.64
12752.68,-10.89
12880.21,-10.29
13009.01,-9.92
13139.10,-9.77
13270.49,-9.84
13403.20,-10.10
13537.23,-10.52
13672.60,-11.14
13809.33,-11.84
13947.42,-12.60
14086.90,-13.45
14227.77,-14.41
14370.04,-15.53
14513.74,-16.90
14658.88,-18.50
14805.47,-20.12
14953.52,-21.51
15103.06,-22.23
15254.09,-22.37
15406.63,-22.30
15560.70,-22.33
15716.30,-22.58
15873.47,-23.00
16032.20,-23.43
16192.52,-23.37
16354.45,-22.51
16517.99,-21.25
16683.17,-19.90
16850.01,-18.83
17018.51,-17.92
17188.69,-17.08
17360.58,-16.61
17534.18,-16.33
17709.53,-16.02
17886.62,-15.63
18065.49,-15.25
18246.14,-14.83
18428.60,-14.26
18612.89,-13.56
18799.02,-12.82
18987.01,-12.15
19176.88,-11.63
19368.65,-11.38
19562.33,-11.39
19757.96,-11.70
19955.54,-12.30
