frequency,raw
20.00,11.88
20.20,11.92
20.40,11.97
20.61,12.01
20.81,12.03
21.02,12.06
21.23,12.09
21.44,12.11
21.66,12.13
21.87,12.14
22.09,12.16
22.31,12.17
22.54,12.18
22.76,12.19
22.99,12.20
23.22,12.21
23.45,12.21
23.69,12.22
23.92,12.22
24.16,12.23
24.40,12.23
24.65,12.23
24.89,12.22
25.14,12.22
25.39,12.21
25.65,12.20
25.91,12.19
26.16,12.18
26.43,12.17
26.69,12.15
26.96,12.13
27.23,12.11
27.50,12.09
27.77,12.07
28.05,12.05
28.33,12.02
28.62,11.99
28.90,11.97
29.19,11.95
29.48,11.92
29.78,11.90
30.08,11.89
30.38,11.86
30.68,11.84
30.99,11.82
31.30,11.79
31.61,11.77
31.93,11.75
32.24,11.73
32.57,11.70
32.89,11.68
33.22,11.65
33.55,11.62
33.89,11.60
34.23,11.57
34.57,11.53
34.92,11.51
35.27,11.48
35.62,11.44
35.97,11.42
36.33,11.38
36.70,11.35
37.06,11.31
37.43,11.27
37.81,11.23
38.19,11.19
38.57,11.15
38.95,11.11
39.34,11.06
39.74,11.02
40.14,10.97
40.54,10.93
40.94,10.89
41.35,10.84
41.76,10.80
42.18,10.76
42.60,10.71
43.03,10.67
43.46,10.63
43.90,10.59
44.33,10.55
44.78,10.51
45.23,10.47
45.68,10.43
46.13,10.39
46.60,10.35
47.06,10.31
47.53,10.27
48.01,10.23
48.49,10.19
48.97,10.15
49.46,10.11
49.96,10.08
50.46,10.05
50.96,10.02
51.47,9.99
51.99,9.97
52.51,9.95
53.03,9.93
53.56,9.91
54.10,9.91
54.64,9.90
55.18,9.90
55.74,9.90
56.29,9.91
56.86,9.92
57.42,9.93
58.00,9.94
58.58,9.95
59.16,9.97
59.76,9.98
60.35,10.00
60.96,10.01
61.57,10.03
62.18,10.05
62.80,10.07
63.43,10.09
64.07,10.11
64.71,10.13
65.35,10.15
66.01,10.17
66.67,10.20
67.33,10.22
68.01,10.24
68.69,10.27
69.37,10.29
70.07,10.32
70.77,10.35
71.48,10.39
72.19,10.42
72.91,10.46
73.64,10.50
74.38,10.54
75.12,10.58
75.87,10.63
76.63,10.68
77.40,10.72
78.17,10.77
78.95,10.82
79.74,10.86
80.54,10.90
81.35,10.94
82.16,10.98
82.98,11.01
83.81,11.04
84.65,11.06
85.50,11.08
86.35,11.09
87.22,11.09
88.09,11.09
88.97,11.08
89.86,11.06
90.76,11.04
91.66,11.02
92.58,10.99
93.51,10.95
94.44,10.91
95.39,10.86
96.34,10.82
97.30,10.76
98.28,10.71
99.26,10.65
100.25,10.58
101.25,10.51
102.27,10.44
103.29,10.35
104.32,10.27
105.37,10.17
106.42,10.07
107.48,9.96
108.56,9.84
109.64,9.71
110.74,9.57
111.85,9.43
112.97,9.28
114.10,9.13
115.24,8.97
116.39,8.81
117.55,8.64
118.73,8.47
119.92,8.31
121.12,8.13
122.33,7.96
123.55,7.78
124.79,7.60
126.03,7.42
127.29,7.23
128.57,7.04
129.85,6.84
131.15,6.63
132.46,6.42
133.79,6.20
135.12,5.98
136.48,5.75
137.84,5.52
139.22,5.29
140.61,5.07
142.02,4.84
143.44,4.62
144.87,4.40
146.32,4.19
147.78,3.97
149.26,3.76
150.75,3.55
152.26,3.33
153.78,3.12
155.32,2.91
156.88,2.70
158.44,2.49
160.03,2.28
161.63,2.08
163.24,1.89
164.88,1.70
166.53,1.53
168.19,1.37
169.87,1.23
171.57,1.09
173.29,0.96
175.02,0.83
176.77,0.72
178.54,0.60
180.32,0.49
182.13,0.38
183.95,0.28
185.79,0.19
187.65,0.11
189.52,0.05
191.42,-0.00
193.33,-0.04
195.27,-0.07
197.22,-0.09
199.19,-0.10
201.18,-0.11
203.19,-0.12
205.23,-0.12
207.28,-0.13
209.35,-0.13
211.44,-0.13
213.56,-0.12
215.69,-0.11
217.85,-0.09
220.03,-0.07
222.23,-0.05
224.45,-0.03
226.70,-0.02
228.96,-0.01
231.25,-0.00
233.57,0.00
235.90,0.01
238.26,0.02
240.64,0.04
243.05,0.05
245.48,0.06
247.93,0.07
250.41,0.07
252.92,0.07
255.45,0.06
258.00,0.04
260.58,0.02
263.19,-0.01
265.82,-0.04
268.48,-0.07
271.16,-0.11
273.87,-0.15
276.61,-0.19
279.38,-0.23
282.17,-0.27
284.99,-0.31
287.84,-0.36
290.72,-0.40
293.63,-0.44
296.57,-0.50
299.53,-0.56
302.53,-0.63
305.55,-0.71
308.61,-0.79
311.69,-0.89
314.81,-0.99
317.96,-1.10
321.14,-1.20
324.35,-1.31
327.59,-1.42
330.87,-1.52
334.18,-1.62
337.52,-1.71
340.90,-1.81
344.30,-1.91
347.75,-2.02
351.23,-2.13
354.74,-2.25
358.28,-2.37
361.87,-2.49
365.49,-2.61
369.14,-2.73
372.83,-2.84
376.56,-2.95
380.33,-3.06
384.13,-3.16
387.97,-3.26
391.85,-3.35
395.77,-3.43
399.73,-3.51
403.72,-3.59
407.76,-3.67
411.84,-3.76
415.96,-3.85
420.12,-3.95
424.32,-4.04
428.56,-4.11
432.85,-4.14
437.18,-4.14
441.55,-4.11
445.96,-4.05
450.42,-3.99
454.93,-3.93
459.48,-3.87
464.07,-3.82
468.71,-3.78
473.40,-3.73
478.13,-3.68
482.91,-3.63
487.74,-3.58
492.62,-3.54
497.55,-3.51
502.52,-3.49
507.55,-3.47
512.62,-3.46
517.75,-3.45
522.93,-3.43
528.16,-3.41
533.44,-3.38
538.77,-3.34
544.16,-3.29
549.60,-3.24
555.10,-3.19
560.65,-3.13
566.25,-3.07
571.92,-3.02
577.64,-2.97
583.41,-2.92
589.25,-2.87
595.14,-2.83
601.09,-2.79
607.10,-2.75
613.17,-2.71
619.30,-2.67
625.50,-2.63
631.75,-2.59
638.07,-2.55
644.45,-2.51
650.89,-2.47
657.40,-2.43
663.98,-2.39
670.62,-2.36
677.32,-2.32
684.10,-2.29
690.94,-2.25
697.85,-2.22
704.83,-2.19
711.87,-2.16
718.99,-2.13
726.18,-2.10
733.44,-2.07
740.78,-2.04
748.19,-2.01
755.67,-1.97
763.23,-1.93
770.86,-1.89
778.57,-1.85
786.35,-1.80
794.22,-1.75
802.16,-1.69
810.18,-1.64
818.28,-1.58
826.46,-1.52
834.73,-1.45
843.08,-1.38
851.51,-1.31
860.02,-1.24
868.62,-1.17
877.31,-1.09
886.08,-1.01
894.94,-0.93
903.89,-0.85
912.93,-0.77
922.06,-0.68
931.28,-0.60
940.59,-0.51
950.00,-0.43
959.50,-0.34
969.09,-0.26
978.78,-0.18
988.57,-0.09
998.46,-0.01
1008.44,0.07
1018.53,0.14
1028.71,0.22
1039.00,0.29
1049.39,0.35
1059.88,0.42
1070.48,0.48
1081.19,0.54
1092.00,0.59
1102.92,0.64
1113.95,0.69
1125.09,0.73
1136.34,0.77
1147.70,0.81
1159.18,0.85
1170.77,0.88
1182.48,0.91
1194.30,0.93
1206.25,0.96
1218.31,0.98
1230.49,1.00
1242.80,1.02
1255.22,1.04
1267.78,1.07
1280.45,1.11
1293.26,1.15
1306.19,1.21
1319.25,1.27
1332.45,1.33
1345.77,1.40
1359.23,1.47
1372.82,1.53
1386.55,1.60
1400.41,1.68
1414.42,1.75
1428.56,1.81
1442.85,1.85
1457.28,1.87
1471.85,1.88
1486.57,1.88
1501.43,1.90
1516.45,1.96
1531.61,2.06
1546.93,2.20
1562.40,2.37
1578.02,2.55
1593.80,2.72
1609.74,2.85
1625.84,2.96
1642.10,3.03
1658.52,3.06
1675.10,3.07
1691.85,3.07
1708.77,3.06
1725.86,3.05
1743.12,3.03
1760.55,3.01
1778.15,3.00
1795.94,2.98
1813.90,2.97
1832.03,2.97
1850.36,2.97
1868.86,2.97
1887.55,2.98
1906.42,3.00
1925.49,3.02
1944.74,3.05
1964.19,3.09
1983.83,3.13
2003.67,3.17
2023.71,3.22
2043.94,3.27
2064.38,3.33
2085.03,3.39
2105.88,3.45
2126.94,3.51
2148.20,3.56
2169.69,3.62
2191.38,3.68
2213.30,3.72
2235.43,3.76
2257.78,3.78
2280.36,3.78
2303.17,3.77
2326.20,3.79
2349.46,3.88
2372.95,4.03
2396.68,4.24
2420.65,4.48
2444.86,4.72
2469.31,4.94
2494.00,5.11
2518.94,5.24
2544.13,5.33
2569.57,5.38
2595.27,5.41
2621.22,5.42
2647.43,5.40
2673.90,5.38
2700.64,5.34
2727.65,5.30
2754.93,5.26
2782.48,5.21
2810.30,5.16
2838.40,5.09
2866.79,5.02
2895.46,4.94
2924.41,4.88
2953.65,4.86
2983.19,4.90
3013.02,5.05
3043.15,5.32
3073.58,5.71
3104.32,6.23
3135.36,6.84
3166.72,7.51
3198.38,8.21
3230.37,8.93
3262.67,9.65
3295.30,10.36
3328.25,11.03
3361.53,11.60
3395.15,12.13
3429.10,12.60
3463.39,12.99
3498.03,13.29
3533.01,13.51
3568.34,13.63
3604.02,13.67
3640.06,13.61
3676.46,13.46
3713.22,13.23
3750.36,12.89
3787.86,12.49
3825.74,12.02
3864.00,11.53
3902.64,11.06
3941.66,10.61
3981.08,10.22
4020.89,9.87
4061.10,9.55
4101.71,9.24
4142.73,8.95
4184.15,8.68
4226.00,8.45
4268.26,8.28
4310.94,8.13
4354.05,7.98
4397.59,7.80
4441.56,7.60
4485.98,7.36
4530.84,7.12
4576.15,6.90
4621.91,6.72
4668.13,6.56
4714.81,6.42
4761.96,6.28
4809.58,6.13
4857.67,5.96
4906.25,5.78
4955.31,5.61
5004.87,5.44
5054.91,5.29
5105.46,5.14
5156.52,4.98
5208.08,4.85
5260.16,4.76
5312.77,4.76
5365.89,4.84
5419.55,4.99
5473.75,5.22
5528.49,5.50
5583.77,5.82
5639.61,6.15
5696.00,6.46
5752.96,6.77
5810.49,7.07
5868.60,7.34
5927.28,7.58
5986.56,7.81
6046.42,8.03
6106.89,8.26
6167.96,8.51
6229.64,8.79
6291.93,9.13
6354.85,9.55
6418.40,10.05
6482.58,10.61
6547.41,11.19
6612.88,11.73
6679.01,12.21
6745.80,12.55
6813.26,12.73
6881.39,12.78
6950.21,12.64
7019.71,12.35
7089.91,11.95
7160.81,11.46
7232.41,10.94
7304.74,10.43
7377.79,9.94
7451.56,9.50
7526.08,9.10
7601.34,8.79
7677.35,8.59
7754.13,8.51
7831.67,8.58
7909.98,8.71
7989.08,8.87
8068.98,8.94
8149.67,8.89
8231.16,8.71
8313.47,8.31
8396.61,7.77
8480.57,7.12
8565.38,6.34
8651.03,5.52
8737.54,4.69
8824.92,3.90
8913.17,3.17
9002.30,2.47
9092.32,1.79
9183.25,1.09
9275.08,0.36
9367.83,-0.44
9461.51,-1.30
9556.12,-2.21
9651.68,-3.00
9748.20,-3.46
9845.68,-3.43
9944.14,-2.37
10043.58,-1.04
10144.02,0.44
10245.46,1.77
10347.91,2.91
10451.39,3.83
10555.91,4.47
10661.46,4.85
10768.08,4.90
10875.76,4.65
10984.52,4.10
11094.36,3.16
11205.31,1.89
11317.36,0.35
11430.53,-1.38
11544.84,-2.73
11660.29,-3.67
11776.89,-4.03
11894.66,-4.08
12013.60,-3.85
12133.74,-3.28
12255.08,-2.48
12377.63,-1.68
12501.41,-1.00
12626.42,-0.58
12752.68,-0.39
12880.21,-0.49
13009.01,-0.92
13139.10,-1.62
13270.49,-2.46
13403.20,-3.14
13537.23,-3.49
13672.60,-3.26
13809.33,-2.90
13947.42,-2.53
14086.90,-2.47
14227.77,-2.69
14370.04,-3.16
14513.74,-3.95
14658.88,-4.92
14805.47,-5.83
14953.52,-6.52
15103.06,-6.85
15254.09,-6.95
15406.63,-6.94
15560.70,-6.91
15716.30,-6.88
15873.47,-6.68
16032.20,-6.22
16192.52,-5.40
16354.45,-4.56
16517.99,-3.90
16683.17,-3.53
16850.01,-3.54
17018.51,-3.82
17188.69,-4.39
17360.58,-5.40
17534.18,-6.50
17709.53,-7.63
17886.62,-8.71
18065.49,-9.68
18246.14,-10.50
18428.60,-11.16
18612.89,-11.67
18799.02,-11.97
18987.01,-12.20
19176.88,-12.43
19368.65,-12.67
19562.33,-12.89
19757.96,-13.08
19955.54,-13.19
