frequency,raw
20.00,-3.64
20.20,-3.61
20.40,-3.58
20.61,-3.55
20.81,-3.52
21.02,-3.48
21.23,-3.45
21.44,-3.41
21.66,-3.37
21.87,-3.33
22.09,-3.29
22.31,-3.26
22.54,-3.23
22.76,-3.19
22.99,-3.17
23.22,-3.14
23.45,-3.11
23.69,-3.08
23.92,-3.05
24.16,-3.02
24.40,-2.99
24.65,-2.96
24.89,-2.93
25.14,-2.90
25.39,-2.87
25.65,-2.83
25.91,-2.80
26.16,-2.77
26.43,-2.75
26.69,-2.74
26.96,-2.74
27.23,-2.74
27.50,-2.73
27.77,-2.72
28.05,-2.68
28.33,-2.64
28.62,-2.59
28.90,-2.54
29.19,-2.51
29.48,-2.49
29.78,-2.48
30.08,-2.48
30.38,-2.48
30.68,-2.47
30.99,-2.45
31.30,-2.43
31.61,-2.41
31.93,-2.39
32.24,-2.38
32.57,-2.37
32.89,-2.36
33.22,-2.35
33.55,-2.34
33.89,-2.33
34.23,-2.33
34.57,-2.33
34.92,-2.33
35.27,-2.34
35.62,-2.35
35.97,-2.36
36.33,-2.38
36.70,-2.39
37.06,-2.41
37.43,-2.43
37.81,-2.46
38.19,-2.49
38.57,-2.52
38.95,-2.55
39.34,-2.59
39.74,-2.64
40.14,-2.69
40.54,-2.75
40.94,-2.81
41.35,-2.87
41.76,-2.92
42.18,-2.97
42.60,-3.02
43.03,-3.05
43.46,-3.05
43.90,-3.04
44.33,-3.01
44.78,-2.97
45.23,-2.93
45.68,-2.89
46.13,-2.84
46.60,-2.80
47.06,-2.77
47.53,-2.74
48.01,-2.72
48.49,-2.70
48.97,-2.70
49.46,-2.70
49.96,-2.69
50.46,-2.69
50.96,-2.69
51.47,-2.69
51.99,-2.71
52.51,-2.73
53.03,-2.75
53.56,-2.77
54.10,-2.78
54.64,-2.79
55.18,-2.78
55.74,-2.77
56.29,-2.72
56.86,-2.64
57.42,-2.56
58.00,-2.52
58.58,-2.52
59.16,-2.51
59.76,-2.43
60.35,-2.31
60.96,-2.21
61.57,-2.13
62.18,-2.06
62.80,-2.00
63.43,-1.94
64.07,-1.90
64.71,-1.85
65.35,-1.81
66.01,-1.76
66.67,-1.72
67.33,-1.67
68.01,-1.63
68.69,-1.58
69.37,-1.53
70.07,-1.49
70.77,-1.46
71.48,-1.43
72.19,-1.40
72.91,-1.36
73.64,-1.34
74.38,-1.32
75.12,-1.30
75.87,-1.28
76.63,-1.26
77.40,-1.25
78.17,-1.24
78.95,-1.23
79.74,-1.22
80.54,-1.21
81.35,-1.20
82.16,-1.18
82.98,-1.18
83.81,-1.18
84.65,-1.18
85.50,-1.17
86.35,-1.16
87.22,-1.16
88.09,-1.15
88.97,-1.14
89.86,-1.14
90.76,-1.13
91.66,-1.12
92.58,-1.11
93.51,-1.09
94.44,-1.08
95.39,-1.07
96.34,-1.06
97.30,-1.05
98.28,-1.04
99.26,-1.03
100.25,-1.03
101.25,-1.02
102.27,-1.01
103.29,-1.00
104.32,-0.98
105.37,-0.97
106.42,-0.97
107.48,-0.96
108.56,-0.96
109.64,-0.95
110.74,-0.94
111.85,-0.93
112.97,-0.92
114.10,-0.92
115.24,-0.92
116.39,-0.91
117.55,-0.90
118.73,-0.89
119.92,-0.88
121.12,-0.88
122.33,-0.87
123.55,-0.86
124.79,-0.86
126.03,-0.86
127.29,-0.85
128.57,-0.84
129.85,-0.84
131.15,-0.83
132.46,-0.82
133.79,-0.81
135.12,-0.80
136.48,-0.79
137.84,-0.79
139.22,-0.79
140.61,-0.78
142.02,-0.78
143.44,-0.79
144.87,-0.79
146.32,-0.79
147.78,-0.78
149.26,-0.78
150.75,-0.78
152.26,-0.77
153.78,-0.77
155.32,-0.77
156.88,-0.77
158.44,-0.77
160.03,-0.77
161.63,-0.77
163.24,-0.76
164.88,-0.77
166.53,-0.77
168.19,-0.77
169.87,-0.77
171.57,-0.76
173.29,-0.76
175.02,-0.76
176.77,-0.76
178.54,-0.76
180.32,-0.76
182.13,-0.76
183.95,-0.76
185.79,-0.77
187.65,-0.77
189.52,-0.77
191.42,-0.76
193.33,-0.76
195.27,-0.76
197.22,-0.76
199.19,-0.76
201.18,-0.76
203.19,-0.76
205.23,-0.76
207.28,-0.76
209.35,-0.76
211.44,-0.76
213.56,-0.76
215.69,-0.76
217.85,-0.76
220.03,-0.76
222.23,-0.76
224.45,-0.76
226.70,-0.76
228.96,-0.76
231.25,-0.77
233.57,-0.77
235.90,-0.77
238.26,-0.76
240.64,-0.76
243.05,-0.76
245.48,-0.77
247.93,-0.77
250.41,-0.77
252.92,-0.77
255.45,-0.76
258.00,-0.77
260.58,-0.77
263.19,-0.76
265.82,-0.77
268.48,-0.77
271.16,-0.78
273.87,-0.78
276.61,-0.78
279.38,-0.78
282.17,-0.78
284.99,-0.78
287.84,-0.79
290.72,-0.79
293.63,-0.78
296.57,-0.78
299.53,-0.78
302.53,-0.78
305.55,-0.79
308.61,-0.79
311.69,-0.79
314.81,-0.80
317.96,-0.80
321.14,-0.80
324.35,-0.80
327.59,-0.80
330.87,-0.81
334.18,-0.81
337.52,-0.82
340.90,-0.82
344.30,-0.83
347.75,-0.83
351.23,-0.83
354.74,-0.83
358.28,-0.83
361.87,-0.84
365.49,-0.84
369.14,-0.84
372.83,-0.84
376.56,-0.85
380.33,-0.85
384.13,-0.86
387.97,-0.87
391.85,-0.88
395.77,-0.89
399.73,-0.89
403.72,-0.90
407.76,-0.91
411.84,-0.91
415.96,-0.92
420.12,-0.93
424.32,-0.93
428.56,-0.93
432.85,-0.94
437.18,-0.94
441.55,-0.94
445.96,-0.94
450.42,-0.93
454.93,-0.92
459.48,-0.91
464.07,-0.89
468.71,-0.88
473.40,-0.86
478.13,-0.84
482.91,-0.84
487.74,-0.83
492.62,-0.82
497.55,-0.81
502.52,-0.81
507.55,-0.79
512.62,-0.77
517.75,-0.76
522.93,-0.76
528.16,-0.75
533.44,-0.73
538.77,-0.71
544.16,-0.69
549.60,-0.68
555.10,-0.67
560.65,-0.66
566.25,-0.65
571.92,-0.63
577.64,-0.61
583.41,-0.60
589.25,-0.58
595.14,-0.56
601.09,-0.54
607.10,-0.53
613.17,-0.52
619.30,-0.51
625.50,-0.49
631.75,-0.47
638.07,-0.45
644.45,-0.43
650.89,-0.41
657.40,-0.39
663.98,-0.39
670.62,-0.39
677.32,-0.39
684.10,-0.37
690.94,-0.35
697.85,-0.32
704.83,-0.29
711.87,-0.27
718.99,-0.26
726.18,-0.25
733.44,-0.24
740.78,-0.22
748.19,-0.20
755.67,-0.17
763.23,-0.14
770.86,-0.12
778.57,-0.12
786.35,-0.13
794.22,-0.15
802.16,-0.13
810.18,-0.10
818.28,-0.07
826.46,-0.07
834.73,-0.10
843.08,-0.12
851.51,-0.11
860.02,-0.09
868.62,-0.07
877.31,-0.06
886.08,-0.05
894.94,-0.03
903.89,0.00
912.93,0.02
922.06,0.03
931.28,0.04
940.59,0.03
950.00,0.01
959.50,-0.01
969.09,-0.02
978.78,-0.00
988.57,0.00
998.46,-0.00
1008.44,0.01
1018.53,0.03
1028.71,0.01
1039.00,-0.03
1049.39,-0.06
1059.88,-0.07
1070.48,-0.07
1081.19,-0.07
1092.00,-0.04
1102.92,0.00
1113.95,0.04
1125.09,0.05
1136.34,0.04
1147.70,0.06
1159.18,0.10
1170.77,0.14
1182.48,0.17
1194.30,0.18
1206.25,0.18
1218.31,0.16
1230.49,0.13
1242.80,0.11
1255.22,0.07
1267.78,0.05
1280.45,0.06
1293.26,0.07
1306.19,0.09
1319.25,0.14
1332.45,0.23
1345.77,0.38
1359.23,0.49
1372.82,0.51
1386.55,0.44
1400.41,0.38
1414.42,0.39
1428.56,0.41
1442.85,0.36
1457.28,0.30
1471.85,0.33
1486.57,0.44
1501.43,0.59
1516.45,0.75
1531.61,0.88
1546.93,0.97
1562.40,1.06
1578.02,1.16
1593.80,1.22
1609.74,1.24
1625.84,1.24
1642.10,1.23
1658.52,1.27
1675.10,1.39
1691.85,1.52
1708.77,1.64
1725.86,1.72
1743.12,1.81
1760.55,1.93
1778.15,2.04
1795.94,2.16
1813.90,2.29
1832.03,2.39
1850.36,2.46
1868.86,2.47
1887.55,2.48
1906.42,2.53
1925.49,2.68
1944.74,2.91
1964.19,3.15
1983.83,3.31
2003.67,3.40
2023.71,3.46
2043.94,3.53
2064.38,3.61
2085.03,3.72
2105.88,3.87
2126.94,4.03
2148.20,4.15
2169.69,4.28
2191.38,4.39
2213.30,4.55
2235.43,4.78
2257.78,5.00
2280.36,5.15
2303.17,5.24
2326.20,5.32
2349.46,5.41
2372.95,5.55
2396.68,5.73
2420.65,5.93
2444.86,6.15
2469.31,6.35
2494.00,6.45
2518.94,6.50
2544.13,6.56
2569.57,6.70
2595.27,6.85
2621.22,6.96
2647.43,7.09
2673.90,7.28
2700.64,7.47
2727.65,7.57
2754.93,7.57
2782.48,7.55
2810.30,7.60
2838.40,7.74
2866.79,7.93
2895.46,8.14
2924.41,8.23
2953.65,8.19
2983.19,8.12
3013.02,8.09
3043.15,8.09
3073.58,8.11
3104.32,8.13
3135.36,8.09
3166.72,8.00
3198.38,7.91
3230.37,7.87
3262.67,7.88
3295.30,7.98
3328.25,8.14
3361.53,8.19
3395.15,8.13
3429.10,8.13
3463.39,8.25
3498.03,8.46
3533.01,8.68
3568.34,8.81
3604.02,8.94
3640.06,9.10
3676.46,9.27
3713.22,9.44
3750.36,9.58
3787.86,9.66
3825.74,9.67
3864.00,9.65
3902.64,9.61
3941.66,9.56
3981.08,9.47
4020.89,9.27
4061.10,9.03
4101.71,8.81
4142.73,8.57
4184.15,8.33
4226.00,8.11
4268.26,7.87
4310.94,7.64
4354.05,7.49
4397.59,7.36
4441.56,7.23
4485.98,7.08
4530.84,6.95
4576.15,6.86
4621.91,6.78
4668.13,6.70
4714.81,6.60
4761.96,6.54
4809.58,6.51
4857.67,6.51
4906.25,6.51
4955.31,6.54
5004.87,6.60
5054.91,6.72
5105.46,6.88
5156.52,7.05
5208.08,7.26
5260.16,7.52
5312.77,7.83
5365.89,8.13
5419.55,8.40
5473.75,8.65
5528.49,8.89
5583.77,9.05
5639.61,9.10
5696.00,9.12
5752.96,9.16
5810.49,9.18
5868.60,9.18
5927.28,9.28
5986.56,9.44
6046.42,9.60
6106.89,9.78
6167.96,10.03
6229.64,10.24
6291.93,10.37
6354.85,10.47
6418.40,10.48
6482.58,10.36
6547.41,10.14
6612.88,9.87
6679.01,9.53
6745.80,9.15
6813.26,8.79
6881.39,8.43
6950.21,8.10
7019.71,7.81
7089.91,7.58
7160.81,7.41
7232.41,7.32
7304.74,7.32
7377.79,7.42
7451.56,7.61
7526.08,7.92
7601.34,8.30
7677.35,8.75
7754.13,9.19
7831.67,9.58
7909.98,9.83
7989.08,9.90
8068.98,9.78
8149.67,9.46
8231.16,9.03
8313.47,8.56
8396.61,8.10
8480.57,7.67
8565.38,7.29
8651.03,6.94
8737.54,6.63
8824.92,6.34
8913.17,6.07
9002.30,5.79
9092.32,5.48
9183.25,5.09
9275.08,4.58
9367.83,3.94
9461.51,3.20
9556.12,2.44
9651.68,1.78
9748.20,1.35
9845.68,1.21
9944.14,1.28
10043.58,1.54
10144.02,1.88
10245.46,2.29
10347.91,2.78
10451.39,3.33
10555.91,3.92
10661.46,4.47
10768.08,4.89
10875.76,5.05
10984.52,4.97
11094.36,4.70
11205.31,4.27
11317.36,3.74
11430.53,3.12
11544.84,2.41
11660.29,1.66
11776.89,0.92
11894.66,0.25
12013.60,-0.31
12133.74,-0.70
12255.08,-0.91
12377.63,-0.92
12501.41,-0.78
12626.42,-0.62
12752.68,-0.60
12880.21,-0.73
13009.01,-0.91
13139.10,-0.97
13270.49,-0.81
13403.20,-0.34
13537.23,0.33
13672.60,1.07
13809.33,1.73
13947.42,2.26
14086.90,2.67
14227.77,2.94
14370.04,3.08
14513.74,3.02
14658.88,2.72
14805.47,2.14
14953.52,1.23
15103.06,0.13
15254.09,-1.00
15406.63,-1.94
15560.70,-2.57
15716.30,-2.84
15873.47,-2.91
16032.20,-2.93
16192.52,-3.07
16354.45,-3.39
16517.99,-3.95
16683.17,-4.82
16850.01,-6.19
17018.51,-8.30
17188.69,-10.89
17360.58,-13.55
17534.18,-16.03
17709.53,-18.41
17886.62,-20.05
18065.49,-20.28
18246.14,-19.63
18428.60,-18.21
18612.89,-16.23
18799.02,-14.03
18987.01,-12.15
19176.88,-10.90
19368.65,-10.48
19562.33,-10.67
19757.96,-11.23
19955.54,-11.98
