frequency,raw
20.00,5.32
20.20,5.35
20.40,5.39
20.61,5.40
20.81,5.40
21.02,5.40
21.23,5.39
21.44,5.39
21.66,5.37
21.87,5.35
22.09,5.33
22.31,5.30
22.54,5.28
22.76,5.26
22.99,5.24
23.22,5.21
23.45,5.19
23.69,5.18
23.92,5.16
24.16,5.15
24.40,5.13
24.65,5.12
24.89,5.10
25.14,5.08
25.39,5.06
25.65,5.03
25.91,5.00
26.16,4.97
26.43,4.92
26.69,4.88
26.96,4.83
27.23,4.78
27.50,4.71
27.77,4.65
28.05,4.60
28.33,4.52
28.62,4.45
28.90,4.39
29.19,4.32
29.48,4.24
29.78,4.18
30.08,4.13
30.38,4.06
30.68,4.01
30.99,3.98
31.30,3.95
31.61,3.94
31.93,3.93
32.24,3.93
32.57,3.93
32.89,3.93
33.22,3.95
33.55,3.97
33.89,3.99
34.23,4.02
34.57,4.07
34.92,4.11
35.27,4.18
35.62,4.26
35.97,4.33
36.33,4.43
36.70,4.52
37.06,4.60
37.43,4.68
37.81,4.73
38.19,4.78
38.57,4.84
38.95,4.88
39.34,4.90
39.74,4.90
40.14,4.91
40.54,4.89
40.94,4.88
41.35,4.91
41.76,4.95
42.18,4.97
42.60,4.97
43.03,4.97
43.46,4.95
43.90,4.93
44.33,4.88
44.78,4.82
45.23,4.75
45.68,4.67
46.13,4.55
46.60,4.40
47.06,4.24
47.53,4.11
48.01,3.96
48.49,3.80
48.97,3.63
49.46,3.46
49.96,3.30
50.46,3.16
50.96,3.03
51.47,2.90
51.99,2.81
52.51,2.74
53.03,2.70
53.56,2.70
54.10,2.71
54.64,2.74
55.18,2.81
55.74,2.89
56.29,3.00
56.86,3.10
57.42,3.20
58.00,3.33
58.58,3.46
59.16,3.58
59.76,3.72
60.35,3.87
60.96,4.03
61.57,4.20
62.18,4.38
62.80,4.57
63.43,4.75
64.07,4.93
64.71,5.10
65.35,5.27
66.01,5.41
66.67,5.55
67.33,5.68
68.01,5.80
68.69,5.90
69.37,6.00
70.07,6.08
70.77,6.16
71.48,6.23
72.19,6.30
72.91,6.36
73.64,6.41
74.38,6.47
75.12,6.52
75.87,6.57
76.63,6.61
77.40,6.65
78.17,6.68
78.95,6.72
79.74,6.77
80.54,6.81
81.35,6.84
82.16,6.88
82.98,6.90
83.81,6.93
84.65,6.94
85.50,6.94
86.35,6.93
87.22,6.90
88.09,6.87
88.97,6.82
89.86,6.77
90.76,6.72
91.66,6.67
92.58,6.61
93.51,6.56
94.44,6.52
95.39,6.48
96.34,6.45
97.30,6.42
98.28,6.40
99.26,6.39
100.25,6.39
101.25,6.39
102.27,6.41
103.29,6.43
104.32,6.46
105.37,6.50
106.42,6.54
107.48,6.58
108.56,6.62
109.64,6.66
110.74,6.70
111.85,6.73
112.97,6.75
114.10,6.77
115.24,6.77
116.39,6.77
117.55,6.75
118.73,6.72
119.92,6.68
121.12,6.63
122.33,6.57
123.55,6.51
124.79,6.43
126.03,6.36
127.29,6.29
128.57,6.22
129.85,6.15
131.15,6.09
132.46,6.04
133.79,6.00
135.12,5.96
136.48,5.94
137.84,5.92
139.22,5.90
140.61,5.89
142.02,5.87
143.44,5.84
144.87,5.80
146.32,5.75
147.78,5.71
149.26,5.66
150.75,5.63
152.26,5.61
153.78,5.59
155.32,5.59
156.88,5.59
158.44,5.58
160.03,5.57
161.63,5.55
163.24,5.52
164.88,5.48
166.53,5.43
168.19,5.36
169.87,5.29
171.57,5.22
173.29,5.15
175.02,5.08
176.77,5.01
178.54,4.95
180.32,4.90
182.13,4.85
183.95,4.79
185.79,4.73
187.65,4.67
189.52,4.59
191.42,4.51
193.33,4.42
195.27,4.32
197.22,4.23
199.19,4.13
201.18,4.04
203.19,3.96
205.23,3.88
207.28,3.81
209.35,3.73
211.44,3.64
213.56,3.54
215.69,3.43
217.85,3.31
220.03,3.19
222.23,3.08
224.45,2.96
226.70,2.85
228.96,2.75
231.25,2.65
233.57,2.54
235.90,2.43
238.26,2.30
240.64,2.17
243.05,2.03
245.48,1.88
247.93,1.73
250.41,1.59
252.92,1.44
255.45,1.29
258.00,1.14
260.58,0.99
263.19,0.83
265.82,0.68
268.48,0.54
271.16,0.42
273.87,0.31
276.61,0.21
279.38,0.11
282.17,0.00
284.99,-0.12
287.84,-0.24
290.72,-0.38
293.63,-0.53
296.57,-0.69
299.53,-0.84
302.53,-1.00
305.55,-1.16
308.61,-1.33
311.69,-1.51
314.81,-1.69
317.96,-1.87
321.14,-2.06
324.35,-2.23
327.59,-2.40
330.87,-2.58
334.18,-2.75
337.52,-2.94
340.90,-3.12
344.30,-3.30
347.75,-3.46
351.23,-3.63
354.74,-3.80
358.28,-3.98
361.87,-4.16
365.49,-4.34
369.14,-4.51
372.83,-4.67
376.56,-4.81
380.33,-4.95
384.13,-5.09
387.97,-5.23
391.85,-5.35
395.77,-5.46
399.73,-5.56
403.72,-5.65
407.76,-5.74
411.84,-5.82
415.96,-5.86
420.12,-5.87
424.32,-5.88
428.56,-5.87
432.85,-5.88
437.18,-5.90
441.55,-5.91
445.96,-5.91
450.42,-5.90
454.93,-5.88
459.48,-5.86
464.07,-5.84
468.71,-5.81
473.40,-5.76
478.13,-5.70
482.91,-5.63
487.74,-5.56
492.62,-5.48
497.55,-5.38
502.52,-5.28
507.55,-5.17
512.62,-5.07
517.75,-4.95
522.93,-4.83
528.16,-4.70
533.44,-4.57
538.77,-4.44
544.16,-4.31
549.60,-4.17
555.10,-4.03
560.65,-3.90
566.25,-3.76
571.92,-3.63
577.64,-3.49
583.41,-3.36
589.25,-3.22
595.14,-3.09
601.09,-2.96
607.10,-2.84
613.17,-2.73
619.30,-2.63
625.50,-2.54
631.75,-2.48
638.07,-2.44
644.45,-2.42
650.89,-2.43
657.40,-2.46
663.98,-2.53
670.62,-2.60
677.32,-2.67
684.10,-2.74
690.94,-2.77
697.85,-2.79
704.83,-2.77
711.87,-2.75
718.99,-2.72
726.18,-2.69
733.44,-2.66
740.78,-2.63
748.19,-2.60
755.67,-2.56
763.23,-2.50
770.86,-2.44
778.57,-2.36
786.35,-2.26
794.22,-2.14
802.16,-2.01
810.18,-1.87
818.28,-1.72
826.46,-1.58
834.73,-1.44
843.08,-1.32
851.51,-1.21
860.02,-1.11
868.62,-1.01
877.31,-0.91
886.08,-0.83
894.94,-0.75
903.89,-0.67
912.93,-0.59
922.06,-0.52
931.28,-0.46
940.59,-0.39
950.00,-0.33
959.50,-0.27
969.09,-0.21
978.78,-0.15
988.57,-0.08
998.46,-0.01
1008.44,0.06
1018.53,0.13
1028.71,0.20
1039.00,0.25
1049.39,0.29
1059.88,0.33
1070.48,0.36
1081.19,0.39
1092.00,0.42
1102.92,0.45
1113.95,0.50
1125.09,0.54
1136.34,0.59
1147.70,0.62
1159.18,0.64
1170.77,0.64
1182.48,0.61
1194.30,0.60
1206.25,0.58
1218.31,0.52
1230.49,0.49
1242.80,0.51
1255.22,0.50
1267.78,0.55
1280.45,0.58
1293.26,0.62
1306.19,0.69
1319.25,0.76
1332.45,0.80
1345.77,0.90
1359.23,0.95
1372.82,1.05
1386.55,1.14
1400.41,1.22
1414.42,1.33
1428.56,1.45
1442.85,1.58
1457.28,1.70
1471.85,1.83
1486.57,1.95
1501.43,2.07
1516.45,2.21
1531.61,2.36
1546.93,2.51
1562.40,2.69
1578.02,2.86
1593.80,3.03
1609.74,3.20
1625.84,3.36
1642.10,3.51
1658.52,3.64
1675.10,3.79
1691.85,3.93
1708.77,4.05
1725.86,4.16
1743.12,4.28
1760.55,4.39
1778.15,4.49
1795.94,4.58
1813.90,4.68
1832.03,4.76
1850.36,4.85
1868.86,4.93
1887.55,4.99
1906.42,5.06
1925.49,5.10
1944.74,5.15
1964.19,5.21
1983.83,5.27
2003.67,5.33
2023.71,5.40
2043.94,5.49
2064.38,5.57
2085.03,5.66
2105.88,5.76
2126.94,5.86
2148.20,5.99
2169.69,6.12
2191.38,6.28
2213.30,6.46
2235.43,6.63
2257.78,6.80
2280.36,6.98
2303.17,7.12
2326.20,7.27
2349.46,7.40
2372.95,7.51
2396.68,7.66
2420.65,7.81
2444.86,7.95
2469.31,8.10
2494.00,8.24
2518.94,8.37
2544.13,8.51
2569.57,8.64
2595.27,8.75
2621.22,8.85
2647.43,8.96
2673.90,9.06
2700.64,9.16
2727.65,9.26
2754.93,9.36
2782.48,9.46
2810.30,9.57
2838.40,9.68
2866.79,9.79
2895.46,9.89
2924.41,9.99
2953.65,10.09
2983.19,10.17
3013.02,10.25
3043.15,10.31
3073.58,10.35
3104.32,10.39
3135.36,10.41
3166.72,10.42
3198.38,10.40
3230.37,10.34
3262.67,10.20
3295.30,10.01
3328.25,9.75
3361.53,9.42
3395.15,9.09
3429.10,8.75
3463.39,8.43
3498.03,8.12
3533.01,7.81
3568.34,7.49
3604.02,7.14
3640.06,6.77
3676.46,6.36
3713.22,5.92
3750.36,5.42
3787.86,4.89
3825.74,4.31
3864.00,3.67
3902.64,2.99
3941.66,2.26
3981.08,1.52
4020.89,0.75
4061.10,-0.00
4101.71,-0.73
4142.73,-1.40
4184.15,-1.99
4226.00,-2.47
4268.26,-2.77
4310.94,-2.97
4354.05,-3.02
4397.59,-2.96
4441.56,-2.84
4485.98,-2.68
4530.84,-2.53
4576.15,-2.42
4621.91,-2.38
4668.13,-2.38
4714.81,-2.45
4761.96,-2.48
4809.58,-2.42
4857.67,-2.24
4906.25,-1.93
4955.31,-1.56
5004.87,-1.15
5054.91,-0.80
5105.46,-0.50
5156.52,-0.22
5208.08,0.06
5260.16,0.38
5312.77,0.78
5365.89,1.21
5419.55,1.68
5473.75,2.20
5528.49,2.80
5583.77,3.53
5639.61,4.42
5696.00,5.51
5752.96,6.69
5810.49,7.91
5868.60,8.98
5927.28,9.88
5986.56,10.58
6046.42,11.01
6106.89,11.26
6167.96,11.37
6229.64,11.37
6291.93,11.33
6354.85,11.27
6418.40,11.22
6482.58,11.19
6547.41,11.15
6612.88,11.07
6679.01,10.89
6745.80,10.57
6813.26,10.11
6881.39,9.57
6950.21,9.01
7019.71,8.58
7089.91,8.29
7160.81,8.16
7232.41,8.16
7304.74,8.20
7377.79,8.27
7451.56,8.35
7526.08,8.44
7601.34,8.55
7677.35,8.68
7754.13,8.83
7831.67,8.99
7909.98,9.14
7989.08,9.28
8068.98,9.38
8149.67,9.46
8231.16,9.50
8313.47,9.49
8396.61,9.46
8480.57,9.41
8565.38,9.33
8651.03,9.24
8737.54,9.14
8824.92,9.04
8913.17,8.93
9002.30,8.83
9092.32,8.74
9183.25,8.66
9275.08,8.60
9367.83,8.56
9461.51,8.52
9556.12,8.47
9651.68,8.40
9748.20,8.31
9845.68,8.20
9944.14,8.07
10043.58,7.95
10144.02,7.84
10245.46,7.75
10347.91,7.66
10451.39,7.55
10555.91,7.39
10661.46,7.16
10768.08,6.80
10875.76,6.29
10984.52,5.60
11094.36,4.72
11205.31,3.73
11317.36,2.68
11430.53,1.63
11544.84,0.60
11660.29,-0.42
11776.89,-1.41
11894.66,-2.27
12013.60,-2.97
12133.74,-3.50
12255.08,-3.87
12377.63,-4.16
12501.41,-4.38
12626.42,-4.48
12752.68,-4.52
12880.21,-4.26
13009.01,-3.74
13139.10,-3.14
13270.49,-2.51
13403.20,-1.90
13537.23,-1.35
13672.60,-1.11
13809.33,-1.15
13947.42,-1.46
14086.90,-1.93
14227.77,-2.31
14370.04,-2.56
14513.74,-2.70
14658.88,-2.88
14805.47,-3.18
14953.52,-3.57
15103.06,-4.00
15254.09,-4.57
15406.63,-5.36
15560.70,-6.39
15716.30,-7.46
15873.47,-8.54
16032.20,-9.62
16192.52,-10.68
16354.45,-11.82
16517.99,-12.95
16683.17,-14.14
16850.01,-15.07
17018.51,-15.88
17188.69,-16.59
17360.58,-17.36
17534.18,-18.16
17709.53,-19.01
17886.62,-19.96
18065.49,-21.06
18246.14,-19.49
18428.60,-17.32
18612.89,-15.92
18799.02,-15.50
18987.01,-15.63
19176.88,-16.22
19368.65,-17.17
19562.33,-18.39
19757.96,-19.75
19955.54,-21.06
