frequency,raw
20.00,13.67
20.20,13.66
20.40,13.65
20.61,13.64
20.81,13.63
21.02,13.61
21.23,13.60
21.44,13.59
21.66,13.58
21.87,13.57
22.09,13.56
22.31,13.55
22.54,13.53
22.76,13.50
22.99,13.47
23.22,13.43
23.45,13.39
23.69,13.36
23.92,13.33
24.16,13.30
24.40,13.28
24.65,13.27
24.89,13.25
25.14,13.23
25.39,13.22
25.65,13.19
25.91,13.17
26.16,13.14
26.43,13.12
26.69,13.11
26.96,13.09
27.23,13.08
27.50,13.07
27.77,13.06
28.05,13.04
28.33,13.03
28.62,13.01
28.90,12.99
29.19,12.98
29.48,12.96
29.78,12.93
30.08,12.91
30.38,12.89
30.68,12.87
30.99,12.85
31.30,12.82
31.61,12.79
31.93,12.76
32.24,12.73
32.57,12.69
32.89,12.66
33.22,12.64
33.55,12.62
33.89,12.60
34.23,12.58
34.57,12.55
34.92,12.53
35.27,12.50
35.62,12.48
35.97,12.45
36.33,12.43
36.70,12.40
37.06,12.38
37.43,12.35
37.81,12.33
38.19,12.31
38.57,12.29
38.95,12.26
39.34,12.22
39.74,12.19
40.14,12.17
40.54,12.15
40.94,12.12
41.35,12.09
41.76,12.06
42.18,12.03
42.60,12.00
43.03,11.99
43.46,11.97
43.90,11.94
44.33,11.91
44.78,11.87
45.23,11.83
45.68,11.80
46.13,11.77
46.60,11.74
47.06,11.72
47.53,11.69
48.01,11.65
48.49,11.62
48.97,11.58
49.46,11.54
49.96,11.51
50.46,11.47
50.96,11.44
51.47,11.40
51.99,11.37
52.51,11.34
53.03,11.31
53.56,11.28
54.10,11.24
54.64,11.20
55.18,11.16
55.74,11.12
56.29,11.09
56.86,11.06
57.42,11.02
58.00,10.97
58.58,10.94
59.16,10.90
59.76,10.87
60.35,10.83
60.96,10.78
61.57,10.75
62.18,10.71
62.80,10.68
63.43,10.64
64.07,10.59
64.71,10.56
65.35,10.52
66.01,10.48
66.67,10.43
67.33,10.39
68.01,10.36
68.69,10.32
69.37,10.27
70.07,10.23
70.77,10.19
71.48,10.15
72.19,10.10
72.91,10.06
73.64,10.01
74.38,9.97
75.12,9.93
75.87,9.88
76.63,9.83
77.40,9.79
78.17,9.74
78.95,9.69
79.74,9.65
80.54,9.60
81.35,9.55
82.16,9.51
82.98,9.47
83.81,9.42
84.65,9.38
85.50,9.33
86.35,9.28
87.22,9.23
88.09,9.18
88.97,9.13
89.86,9.09
90.76,9.03
91.66,8.98
92.58,8.93
93.51,8.89
94.44,8.84
95.39,8.79
96.34,8.74
97.30,8.69
98.28,8.64
99.26,8.60
100.25,8.55
101.25,8.49
102.27,8.44
103.29,8.38
104.32,8.31
105.37,8.26
106.42,8.22
107.48,8.19
108.56,8.13
109.64,8.07
110.74,8.02
111.85,7.97
112.97,7.90
114.10,7.84
115.24,7.79
116.39,7.76
117.55,7.73
118.73,7.65
119.92,7.58
121.12,7.51
122.33,7.47
123.55,7.47
124.79,7.45
126.03,7.39
127.29,7.31
128.57,7.24
129.85,7.18
131.15,7.12
132.46,7.06
133.79,6.95
135.12,6.88
136.48,6.83
137.84,6.81
139.22,6.79
140.61,6.73
142.02,6.65
143.44,6.59
144.87,6.55
146.32,6.47
147.78,6.39
149.26,6.34
150.75,6.29
152.26,6.25
153.78,6.19
155.32,6.12
156.88,6.05
158.44,6.00
160.03,5.98
161.63,5.90
163.24,5.82
164.88,5.75
166.53,5.69
168.19,5.65
169.87,5.63
171.57,5.57
173.29,5.50
175.02,5.43
176.77,5.37
178.54,5.32
180.32,5.27
182.13,5.23
183.95,5.14
185.79,5.06
187.65,4.98
189.52,4.92
191.42,4.89
193.33,4.84
195.27,4.75
197.22,4.72
199.19,4.64
201.18,4.57
203.19,4.51
205.23,4.47
207.28,4.41
209.35,4.35
211.44,4.28
213.56,4.25
215.69,4.19
217.85,4.10
220.03,4.04
222.23,4.00
224.45,3.95
226.70,3.90
228.96,3.83
231.25,3.76
233.57,3.69
235.90,3.65
238.26,3.58
240.64,3.53
243.05,3.51
245.48,3.43
247.93,3.37
250.41,3.32
252.92,3.24
255.45,3.18
258.00,3.14
260.58,3.10
263.19,3.04
265.82,2.96
268.48,2.88
271.16,2.82
273.87,2.78
276.61,2.74
279.38,2.66
282.17,2.61
284.99,2.57
287.84,2.51
290.72,2.44
293.63,2.36
296.57,2.31
299.53,2.31
302.53,2.26
305.55,2.19
308.61,2.13
311.69,2.08
314.81,2.02
317.96,1.96
321.14,1.92
324.35,1.88
327.59,1.83
330.87,1.77
334.18,1.74
337.52,1.69
340.90,1.64
344.30,1.60
347.75,1.56
351.23,1.51
354.74,1.45
358.28,1.38
361.87,1.33
365.49,1.30
369.14,1.20
372.83,1.19
376.56,1.17
380.33,1.09
384.13,1.04
387.97,0.99
391.85,0.95
395.77,0.91
399.73,0.83
403.72,0.79
407.76,0.75
411.84,0.71
415.96,0.68
420.12,0.65
424.32,0.61
428.56,0.48
432.85,0.46
437.18,0.61
441.55,0.50
445.96,0.41
450.42,0.35
454.93,0.31
459.48,0.26
464.07,0.21
468.71,0.17
473.40,0.13
478.13,0.09
482.91,0.04
487.74,0.00
492.62,-0.03
497.55,-0.06
502.52,-0.10
507.55,-0.14
512.62,-0.18
517.75,-0.22
522.93,-0.26
528.16,-0.29
533.44,-0.33
538.77,-0.37
544.16,-0.40
549.60,-0.42
555.10,-0.45
560.65,-0.48
566.25,-0.52
571.92,-0.55
577.64,-0.58
583.41,-0.62
589.25,-0.65
595.14,-0.66
601.09,-0.67
607.10,-0.67
613.17,-0.71
619.30,-0.74
625.50,-0.77
631.75,-0.79
638.07,-0.83
644.45,-0.90
650.89,-0.96
657.40,-0.97
663.98,-0.97
670.62,-0.98
677.32,-0.97
684.10,-0.97
690.94,-0.97
697.85,-0.96
704.83,-0.97
711.87,-0.99
718.99,-0.99
726.18,-1.00
733.44,-1.02
740.78,-1.03
748.19,-1.03
755.67,-1.03
763.23,-1.03
770.86,-1.04
778.57,-1.04
786.35,-1.03
794.22,-1.03
802.16,-1.03
810.18,-1.01
818.28,-1.00
826.46,-0.98
834.73,-0.95
843.08,-0.93
851.51,-0.90
860.02,-0.88
868.62,-0.83
877.31,-0.79
886.08,-0.74
894.94,-0.76
903.89,-0.75
912.93,-0.72
922.06,-0.68
931.28,-0.64
940.59,-0.58
950.00,-0.50
959.50,-0.43
969.09,-0.34
978.78,-0.24
988.57,-0.13
998.46,-0.02
1008.44,0.11
1018.53,0.25
1028.71,0.39
1039.00,0.55
1049.39,0.70
1059.88,0.85
1070.48,0.99
1081.19,1.13
1092.00,1.28
1102.92,1.41
1113.95,1.54
1125.09,1.67
1136.34,1.79
1147.70,1.91
1159.18,2.03
1170.77,2.15
1182.48,2.26
1194.30,2.37
1206.25,2.48
1218.31,2.59
1230.49,2.70
1242.80,2.81
1255.22,2.92
1267.78,3.03
1280.45,3.13
1293.26,3.24
1306.19,3.35
1319.25,3.46
1332.45,3.57
1345.77,3.68
1359.23,3.79
1372.82,3.90
1386.55,4.01
1400.41,4.12
1414.42,4.23
1428.56,4.34
1442.85,4.45
1457.28,4.56
1471.85,4.67
1486.57,4.79
1501.43,4.90
1516.45,5.01
1531.61,5.13
1546.93,5.24
1562.40,5.36
1578.02,5.47
1593.80,5.59
1609.74,5.71
1625.84,5.83
1642.10,5.94
1658.52,6.06
1675.10,6.18
1691.85,6.29
1708.77,6.41
1725.86,6.52
1743.12,6.63
1760.55,6.74
1778.15,6.84
1795.94,6.94
1813.90,7.04
1832.03,7.13
1850.36,7.21
1868.86,7.28
1887.55,7.34
1906.42,7.40
1925.49,7.44
1944.74,7.47
1964.19,7.48
1983.83,7.48
2003.67,7.47
2023.71,7.45
2043.94,7.41
2064.38,7.37
2085.03,7.32
2105.88,7.28
2126.94,7.25
2148.20,7.23
2169.69,7.23
2191.38,7.25
2213.30,7.29
2235.43,7.34
2257.78,7.39
2280.36,7.44
2303.17,7.49
2326.20,7.52
2349.46,7.54
2372.95,7.54
2396.68,7.52
2420.65,7.49
2444.86,7.45
2469.31,7.40
2494.00,7.34
2518.94,7.26
2544.13,7.19
2569.57,7.11
2595.27,7.03
2621.22,6.94
2647.43,6.86
2673.90,6.77
2700.64,6.69
2727.65,6.61
2754.93,6.52
2782.48,6.44
2810.30,6.37
2838.40,6.29
2866.79,6.22
2895.46,6.15
2924.41,6.08
2953.65,6.02
2983.19,5.96
3013.02,5.91
3043.15,5.86
3073.58,5.82
3104.32,5.77
3135.36,5.74
3166.72,5.71
3198.38,5.69
3230.37,5.67
3262.67,5.66
3295.30,5.65
3328.25,5.65
3361.53,5.65
3395.15,5.66
3429.10,5.68
3463.39,5.71
3498.03,5.74
3533.01,5.79
3568.34,5.83
3604.02,5.89
3640.06,5.95
3676.46,6.03
3713.22,6.11
3750.36,6.20
3787.86,6.30
3825.74,6.41
3864.00,6.52
3902.64,6.65
3941.66,6.79
3981.08,6.93
4020.89,7.07
4061.10,7.23
4101.71,7.38
4142.73,7.53
4184.15,7.69
4226.00,7.83
4268.26,7.98
4310.94,8.11
4354.05,8.23
4397.59,8.34
4441.56,8.44
4485.98,8.54
4530.84,8.63
4576.15,8.73
4621.91,8.83
4668.13,8.94
4714.81,9.04
4761.96,9.14
4809.58,9.22
4857.67,9.27
4906.25,9.26
4955.31,9.21
5004.87,9.08
5054.91,8.85
5105.46,8.55
5156.52,8.18
5208.08,7.74
5260.16,7.26
5312.77,6.76
5365.89,6.26
5419.55,5.75
5473.75,5.26
5528.49,4.78
5583.77,4.33
5639.61,3.92
5696.00,3.52
5752.96,3.13
5810.49,2.76
5868.60,2.44
5927.28,2.15
5986.56,1.89
6046.42,1.64
6106.89,1.40
6167.96,1.22
6229.64,1.08
6291.93,0.98
6354.85,0.93
6418.40,0.89
6482.58,0.90
6547.41,0.94
6612.88,1.02
6679.01,1.15
6745.80,1.32
6813.26,1.53
6881.39,1.80
6950.21,2.12
7019.71,2.48
7089.91,2.87
7160.81,3.31
7232.41,3.77
7304.74,4.24
7377.79,4.75
7451.56,5.29
7526.08,5.87
7601.34,6.47
7677.35,7.10
7754.13,7.73
7831.67,8.35
7909.98,8.92
7989.08,9.43
8068.98,9.72
8149.67,9.83
8231.16,9.68
8313.47,9.24
8396.61,8.67
8480.57,7.92
8565.38,7.13
8651.03,6.33
8737.54,5.54
8824.92,4.80
8913.17,4.14
9002.30,3.50
9092.32,2.97
9183.25,2.49
9275.08,2.06
9367.83,1.71
9461.51,1.43
9556.12,1.20
9651.68,1.04
9748.20,0.92
9845.68,0.86
9944.14,0.83
10043.58,0.83
10144.02,0.84
10245.46,0.87
10347.91,0.92
10451.39,0.99
10555.91,1.06
10661.46,1.14
10768.08,1.22
10875.76,1.28
10984.52,1.28
11094.36,1.22
11205.31,1.05
11317.36,0.87
11430.53,0.70
11544.84,0.52
11660.29,0.28
11776.89,-0.01
11894.66,-0.44
12013.60,-0.88
12133.74,-1.34
12255.08,-1.83
12377.63,-2.31
12501.41,-2.78
12626.42,-3.20
12752.68,-3.56
12880.21,-3.83
13009.01,-4.05
13139.10,-4.28
13270.49,-4.35
13403.20,-4.38
13537.23,-4.34
13672.60,-4.23
13809.33,-4.05
13947.42,-3.78
14086.90,-3.36
14227.77,-2.86
14370.04,-2.27
14513.74,-1.56
14658.88,-0.73
14805.47,0.11
14953.52,0.96
15103.06,1.71
15254.09,2.42
15406.63,2.86
15560.70,3.16
15716.30,3.26
15873.47,3.10
16032.20,2.94
16192.52,3.06
16354.45,3.40
16517.99,3.82
16683.17,3.89
16850.01,3.44
17018.51,2.57
17188.69,1.02
17360.58,-0.70
17534.18,-2.49
17709.53,-4.20
17886.62,-5.76
18065.49,-7.18
18246.14,-8.46
18428.60,-9.49
18612.89,-10.35
18799.02,-11.05
18987.01,-11.58
19176.88,-11.99
19368.65,-12.42
19562.33,-12.92
19757.96,-13.54
19955.54,-14.15
