frequency,raw
20.00,9.19
20.20,9.20
20.40,9.21
20.61,9.22
20.81,9.22
21.02,9.22
21.23,9.22
21.44,9.22
21.66,9.21
21.87,9.21
22.09,9.20
22.31,9.19
22.54,9.18
22.76,9.17
22.99,9.15
23.22,9.13
23.45,9.11
23.69,9.09
23.92,9.06
24.16,9.04
24.40,9.02
24.65,9.00
24.89,8.99
25.14,8.97
25.39,8.96
25.65,8.95
25.91,8.93
26.16,8.92
26.43,8.91
26.69,8.90
26.96,8.88
27.23,8.87
27.50,8.85
27.77,8.84
28.05,8.83
28.33,8.82
28.62,8.81
28.90,8.80
29.19,8.79
29.48,8.77
29.78,8.75
30.08,8.74
30.38,8.72
30.68,8.69
30.99,8.67
31.30,8.65
31.61,8.62
31.93,8.60
32.24,8.57
32.57,8.53
32.89,8.50
33.22,8.47
33.55,8.44
33.89,8.41
34.23,8.38
34.57,8.36
34.92,8.33
35.27,8.31
35.62,8.29
35.97,8.26
36.33,8.23
36.70,8.21
37.06,8.18
37.43,8.16
37.81,8.13
38.19,8.10
38.57,8.07
38.95,8.04
39.34,8.01
39.74,7.98
40.14,7.95
40.54,7.92
40.94,7.88
41.35,7.85
41.76,7.81
42.18,7.78
42.60,7.75
43.03,7.72
43.46,7.69
43.90,7.65
44.33,7.62
44.78,7.58
45.23,7.55
45.68,7.52
46.13,7.49
46.60,7.46
47.06,7.42
47.53,7.39
48.01,7.35
48.49,7.32
48.97,7.28
49.46,7.24
49.96,7.20
50.46,7.16
50.96,7.12
51.47,7.09
51.99,7.05
52.51,7.02
53.03,6.98
53.56,6.94
54.10,6.89
54.64,6.85
55.18,6.80
55.74,6.76
56.29,6.71
56.86,6.67
57.42,6.62
58.00,6.58
58.58,6.53
59.16,6.49
59.76,6.44
60.35,6.40
60.96,6.35
61.57,6.31
62.18,6.26
62.80,6.21
63.43,6.15
64.07,6.10
64.71,6.05
65.35,6.01
66.01,5.96
66.67,5.90
67.33,5.84
68.01,5.78
68.69,5.73
69.37,5.68
70.07,5.63
70.77,5.57
71.48,5.51
72.19,5.46
72.91,5.40
73.64,5.35
74.38,5.29
75.12,5.24
75.87,5.17
76.63,5.10
77.40,5.04
78.17,4.98
78.95,4.91
79.74,4.85
80.54,4.79
81.35,4.72
82.16,4.64
82.98,4.57
83.81,4.49
84.65,4.40
85.50,4.30
86.35,4.22
87.22,4.18
88.09,4.10
88.97,4.01
89.86,3.94
90.76,3.90
91.66,3.90
92.58,3.94
93.51,3.94
94.44,3.97
95.39,3.99
96.34,3.99
97.30,3.98
98.28,3.92
99.26,3.87
100.25,3.88
101.25,3.98
102.27,4.04
103.29,4.09
104.32,4.12
105.37,4.12
106.42,4.10
107.48,4.06
108.56,4.01
109.64,3.98
110.74,3.94
111.85,3.86
112.97,3.79
114.10,3.74
115.24,3.69
116.39,3.61
117.55,3.55
118.73,3.50
119.92,3.44
121.12,3.37
122.33,3.31
123.55,3.27
124.79,3.21
126.03,3.16
127.29,3.10
128.57,3.04
129.85,2.98
131.15,2.93
132.46,2.88
133.79,2.83
135.12,2.77
136.48,2.71
137.84,2.66
139.22,2.60
140.61,2.55
142.02,2.50
143.44,2.45
144.87,2.39
146.32,2.34
147.78,2.30
149.26,2.23
150.75,2.15
152.26,2.07
153.78,2.05
155.32,2.03
156.88,1.98
158.44,1.92
160.03,1.87
161.63,1.82
163.24,1.76
164.88,1.70
166.53,1.66
168.19,1.61
169.87,1.57
171.57,1.52
173.29,1.47
175.02,1.40
176.77,1.35
178.54,1.28
180.32,1.20
182.13,1.20
183.95,1.19
185.79,1.16
187.65,1.12
189.52,1.11
191.42,1.06
193.33,1.04
195.27,1.05
197.22,1.04
199.19,1.03
201.18,1.01
203.19,0.97
205.23,0.92
207.28,0.88
209.35,0.84
211.44,0.83
213.56,0.78
215.69,0.73
217.85,0.69
220.03,0.68
222.23,0.61
224.45,0.55
226.70,0.51
228.96,0.47
231.25,0.43
233.57,0.38
235.90,0.34
238.26,0.31
240.64,0.28
243.05,0.24
245.48,0.20
247.93,0.16
250.41,0.13
252.92,0.08
255.45,0.04
258.00,0.00
260.58,-0.04
263.19,-0.08
265.82,-0.11
268.48,-0.14
271.16,-0.18
273.87,-0.21
276.61,-0.23
279.38,-0.25
282.17,-0.29
284.99,-0.34
287.84,-0.36
290.72,-0.38
293.63,-0.43
296.57,-0.45
299.53,-0.45
302.53,-0.49
305.55,-0.51
308.61,-0.51
311.69,-0.54
314.81,-0.59
317.96,-0.60
321.14,-0.61
324.35,-0.63
327.59,-0.66
330.87,-0.70
334.18,-0.72
337.52,-0.76
340.90,-0.79
344.30,-0.81
347.75,-0.83
351.23,-0.86
354.74,-0.90
358.28,-0.91
361.87,-0.93
365.49,-0.96
369.14,-0.99
372.83,-1.01
376.56,-1.02
380.33,-1.06
384.13,-1.08
387.97,-1.10
391.85,-1.11
395.77,-1.13
399.73,-1.15
403.72,-1.18
407.76,-1.20
411.84,-1.21
415.96,-1.23
420.12,-1.25
424.32,-1.27
428.56,-1.29
432.85,-1.31
437.18,-1.33
441.55,-1.33
445.96,-1.34
450.42,-1.36
454.93,-1.37
459.48,-1.39
464.07,-1.40
468.71,-1.41
473.40,-1.42
478.13,-1.43
482.91,-1.44
487.74,-1.45
492.62,-1.46
497.55,-1.47
502.52,-1.48
507.55,-1.49
512.62,-1.49
517.75,-1.50
522.93,-1.51
528.16,-1.51
533.44,-1.51
538.77,-1.51
544.16,-1.52
549.60,-1.52
555.10,-1.53
560.65,-1.53
566.25,-1.54
571.92,-1.55
577.64,-1.55
583.41,-1.55
589.25,-1.55
595.14,-1.55
601.09,-1.56
607.10,-1.55
613.17,-1.54
619.30,-1.53
625.50,-1.53
631.75,-1.53
638.07,-1.53
644.45,-1.52
650.89,-1.52
657.40,-1.51
663.98,-1.50
670.62,-1.49
677.32,-1.48
684.10,-1.47
690.94,-1.45
697.85,-1.44
704.83,-1.43
711.87,-1.41
718.99,-1.39
726.18,-1.38
733.44,-1.36
740.78,-1.34
748.19,-1.32
755.67,-1.30
763.23,-1.28
770.86,-1.25
778.57,-1.23
786.35,-1.20
794.22,-1.17
802.16,-1.14
810.18,-1.10
818.28,-1.07
826.46,-1.03
834.73,-1.00
843.08,-0.96
851.51,-0.91
860.02,-0.87
868.62,-0.82
877.31,-0.78
886.08,-0.73
894.94,-0.68
903.89,-0.63
912.93,-0.57
922.06,-0.51
931.28,-0.45
940.59,-0.39
950.00,-0.33
959.50,-0.26
969.09,-0.20
978.78,-0.14
988.57,-0.08
998.46,-0.01
1008.44,0.06
1018.53,0.13
1028.71,0.20
1039.00,0.27
1049.39,0.34
1059.88,0.41
1070.48,0.49
1081.19,0.56
1092.00,0.64
1102.92,0.73
1113.95,0.81
1125.09,0.90
1136.34,0.98
1147.70,1.08
1159.18,1.16
1170.77,1.25
1182.48,1.33
1194.30,1.42
1206.25,1.50
1218.31,1.58
1230.49,1.65
1242.80,1.72
1255.22,1.79
1267.78,1.88
1280.45,1.97
1293.26,2.04
1306.19,2.11
1319.25,2.17
1332.45,2.25
1345.77,2.32
1359.23,2.38
1372.82,2.47
1386.55,2.56
1400.41,2.64
1414.42,2.73
1428.56,2.81
1442.85,2.90
1457.28,2.98
1471.85,3.06
1486.57,3.15
1501.43,3.23
1516.45,3.31
1531.61,3.39
1546.93,3.46
1562.40,3.54
1578.02,3.62
1593.80,3.69
1609.74,3.77
1625.84,3.85
1642.10,3.93
1658.52,4.01
1675.10,4.09
1691.85,4.17
1708.77,4.25
1725.86,4.33
1743.12,4.42
1760.55,4.50
1778.15,4.58
1795.94,4.66
1813.90,4.75
1832.03,4.83
1850.36,4.91
1868.86,5.00
1887.55,5.08
1906.42,5.17
1925.49,5.25
1944.74,5.34
1964.19,5.42
1983.83,5.51
2003.67,5.60
2023.71,5.68
2043.94,5.76
2064.38,5.85
2085.03,5.93
2105.88,6.01
2126.94,6.09
2148.20,6.17
2169.69,6.25
2191.38,6.33
2213.30,6.40
2235.43,6.48
2257.78,6.54
2280.36,6.61
2303.17,6.68
2326.20,6.75
2349.46,6.81
2372.95,6.87
2396.68,6.92
2420.65,6.98
2444.86,7.03
2469.31,7.08
2494.00,7.12
2518.94,7.16
2544.13,7.19
2569.57,7.22
2595.27,7.25
2621.22,7.28
2647.43,7.30
2673.90,7.31
2700.64,7.33
2727.65,7.34
2754.93,7.35
2782.48,7.35
2810.30,7.35
2838.40,7.35
2866.79,7.34
2895.46,7.33
2924.41,7.31
2953.65,7.30
2983.19,7.28
3013.02,7.26
3043.15,7.24
3073.58,7.22
3104.32,7.20
3135.36,7.18
3166.72,7.15
3198.38,7.13
3230.37,7.10
3262.67,7.07
3295.30,7.05
3328.25,7.02
3361.53,7.00
3395.15,6.97
3429.10,6.94
3463.39,6.92
3498.03,6.89
3533.01,6.86
3568.34,6.83
3604.02,6.81
3640.06,6.78
3676.46,6.75
3713.22,6.73
3750.36,6.70
3787.86,6.69
3825.74,6.67
3864.00,6.65
3902.64,6.63
3941.66,6.61
3981.08,6.59
4020.89,6.57
4061.10,6.55
4101.71,6.53
4142.73,6.51
4184.15,6.48
4226.00,6.46
4268.26,6.44
4310.94,6.42
4354.05,6.39
4397.59,6.36
4441.56,6.32
4485.98,6.28
4530.84,6.24
4576.15,6.19
4621.91,6.13
4668.13,6.08
4714.81,6.01
4761.96,5.94
4809.58,5.86
4857.67,5.78
4906.25,5.69
4955.31,5.60
5004.87,5.49
5054.91,5.38
5105.46,5.27
5156.52,5.15
5208.08,5.02
5260.16,4.89
5312.77,4.76
5365.89,4.62
5419.55,4.48
5473.75,4.34
5528.49,4.19
5583.77,4.05
5639.61,3.91
5696.00,3.77
5752.96,3.63
5810.49,3.49
5868.60,3.36
5927.28,3.23
5986.56,3.10
6046.42,2.98
6106.89,2.87
6167.96,2.77
6229.64,2.67
6291.93,2.59
6354.85,2.51
6418.40,2.45
6482.58,2.40
6547.41,2.37
6612.88,2.36
6679.01,2.37
6745.80,2.41
6813.26,2.48
6881.39,2.61
6950.21,2.78
7019.71,2.98
7089.91,3.19
7160.81,3.44
7232.41,3.71
7304.74,4.02
7377.79,4.38
7451.56,4.76
7526.08,5.18
7601.34,5.62
7677.35,6.10
7754.13,6.59
7831.67,6.98
7909.98,7.29
7989.08,7.50
8068.98,7.51
8149.67,7.37
8231.16,7.00
8313.47,6.40
8396.61,5.70
8480.57,4.84
8565.38,3.94
8651.03,3.01
8737.54,2.08
8824.92,1.19
8913.17,0.34
9002.30,-0.49
9092.32,-1.26
9183.25,-2.00
9275.08,-2.72
9367.83,-3.40
9461.51,-4.05
9556.12,-4.68
9651.68,-5.29
9748.20,-5.87
9845.68,-6.40
9944.14,-6.91
10043.58,-7.36
10144.02,-7.76
10245.46,-8.15
10347.91,-8.50
10451.39,-8.79
10555.91,-9.01
10661.46,-9.17
10768.08,-9.27
10875.76,-9.23
10984.52,-9.06
11094.36,-8.79
11205.31,-8.37
11317.36,-7.78
11430.53,-7.16
11544.84,-6.49
11660.29,-5.80
11776.89,-5.14
11894.66,-4.57
12013.60,-4.00
12133.74,-3.50
12255.08,-3.02
12377.63,-2.54
12501.41,-2.05
12626.42,-1.51
12752.68,-0.94
12880.21,-0.41
13009.01,0.11
13139.10,0.62
13270.49,0.87
13403.20,1.00
13537.23,0.75
13672.60,0.36
13809.33,-0.14
13947.42,-0.70
14086.90,-1.26
14227.77,-1.84
14370.04,-2.37
14513.74,-2.84
14658.88,-3.20
14805.47,-3.50
14953.52,-3.69
15103.06,-3.79
15254.09,-3.83
15406.63,-3.76
15560.70,-3.69
15716.30,-3.61
15873.47,-3.59
16032.20,-3.65
16192.52,-3.97
16354.45,-4.38
16517.99,-4.88
16683.17,-5.58
16850.01,-6.41
17018.51,-7.34
17188.69,-8.34
17360.58,-9.34
17534.18,-10.32
17709.53,-11.23
17886.62,-12.02
18065.49,-12.70
18246.14,-13.27
18428.60,-13.62
18612.89,-13.94
18799.02,-14.19
18987.01,-14.26
19176.88,-14.15
19368.65,-13.92
19562.33,-13.54
19757.96,-12.98
19955.54,-12.43
