frequency,raw
20.00,4.78
20.20,4.83
20.40,4.87
20.61,4.92
20.81,4.97
21.02,5.01
21.23,5.06
21.44,5.11
21.66,5.16
21.87,5.21
22.09,5.24
22.31,5.27
22.54,5.29
22.76,5.31
22.99,5.32
23.22,5.32
23.45,5.32
23.69,5.33
23.92,5.34
24.16,5.35
24.40,5.37
24.65,5.39
24.89,5.40
25.14,5.41
25.39,5.42
25.65,5.43
25.91,5.43
26.16,5.43
26.43,5.44
26.69,5.46
26.96,5.47
27.23,5.49
27.50,5.51
27.77,5.52
28.05,5.52
28.33,5.51
28.62,5.51
28.90,5.52
29.19,5.52
29.48,5.53
29.78,5.55
30.08,5.55
30.38,5.55
30.68,5.55
30.99,5.53
31.30,5.52
31.61,5.50
31.93,5.49
32.24,5.48
32.57,5.46
32.89,5.45
33.22,5.43
33.55,5.42
33.89,5.41
34.23,5.40
34.57,5.41
34.92,5.41
35.27,5.41
35.62,5.41
35.97,5.40
36.33,5.38
36.70,5.37
37.06,5.35
37.43,5.34
37.81,5.33
38.19,5.32
38.57,5.30
38.95,5.28
39.34,5.25
39.74,5.23
40.14,5.20
40.54,5.19
40.94,5.17
41.35,5.14
41.76,5.12
42.18,5.09
42.60,5.06
43.03,5.04
43.46,5.02
43.90,5.00
44.33,4.97
44.78,4.94
45.23,4.91
45.68,4.88
46.13,4.85
46.60,4.83
47.06,4.80
47.53,4.77
48.01,4.73
48.49,4.69
48.97,4.66
49.46,4.63
49.96,4.60
50.46,4.56
50.96,4.52
51.47,4.49
51.99,4.46
52.51,4.43
53.03,4.40
53.56,4.39
54.10,4.37
54.64,4.35
55.18,4.32
55.74,4.28
56.29,4.25
56.86,4.21
57.42,4.17
58.00,4.12
58.58,4.10
59.16,4.08
59.76,4.06
60.35,4.04
60.96,4.00
61.57,3.96
62.18,3.93
62.80,3.88
63.43,3.84
64.07,3.79
64.71,3.75
65.35,3.71
66.01,3.67
66.67,3.62
67.33,3.57
68.01,3.53
68.69,3.50
69.37,3.48
70.07,3.46
70.77,3.43
71.48,3.39
72.19,3.35
72.91,3.31
73.64,3.29
74.38,3.26
75.12,3.23
75.87,3.19
76.63,3.15
77.40,3.11
78.17,3.07
78.95,3.03
79.74,2.98
80.54,2.94
81.35,2.90
82.16,2.86
82.98,2.82
83.81,2.78
84.65,2.74
85.50,2.69
86.35,2.64
87.22,2.61
88.09,2.57
88.97,2.52
89.86,2.47
90.76,2.44
91.66,2.41
92.58,2.35
93.51,2.31
94.44,2.26
95.39,2.21
96.34,2.16
97.30,2.13
98.28,2.08
99.26,2.01
100.25,1.95
101.25,1.97
102.27,1.93
103.29,1.88
104.32,1.86
105.37,1.80
106.42,1.74
107.48,1.71
108.56,1.67
109.64,1.63
110.74,1.58
111.85,1.53
112.97,1.49
114.10,1.45
115.24,1.41
116.39,1.38
117.55,1.34
118.73,1.29
119.92,1.25
121.12,1.20
122.33,1.16
123.55,1.11
124.79,1.07
126.03,1.04
127.29,1.00
128.57,0.94
129.85,0.87
131.15,0.79
132.46,0.76
133.79,0.77
135.12,0.73
136.48,0.68
137.84,0.64
139.22,0.60
140.61,0.56
142.02,0.51
143.44,0.47
144.87,0.42
146.32,0.38
147.78,0.33
149.26,0.28
150.75,0.23
152.26,0.18
153.78,0.13
155.32,0.09
156.88,0.04
158.44,-0.01
160.03,-0.06
161.63,-0.12
163.24,-0.18
164.88,-0.24
166.53,-0.26
168.19,-0.27
169.87,-0.29
171.57,-0.34
173.29,-0.39
175.02,-0.42
176.77,-0.46
178.54,-0.49
180.32,-0.50
182.13,-0.47
183.95,-0.40
185.79,-0.36
187.65,-0.37
189.52,-0.41
191.42,-0.45
193.33,-0.50
195.27,-0.55
197.22,-0.53
199.19,-0.53
201.18,-0.49
203.19,-0.41
205.23,-0.32
207.28,-0.26
209.35,-0.23
211.44,-0.16
213.56,-0.15
215.69,-0.16
217.85,-0.18
220.03,-0.19
222.23,-0.25
224.45,-0.29
226.70,-0.31
228.96,-0.37
231.25,-0.42
233.57,-0.46
235.90,-0.49
238.26,-0.53
240.64,-0.56
243.05,-0.60
245.48,-0.63
247.93,-0.66
250.41,-0.69
252.92,-0.72
255.45,-0.76
258.00,-0.80
260.58,-0.84
263.19,-0.87
265.82,-0.90
268.48,-0.92
271.16,-0.96
273.87,-0.98
276.61,-1.00
279.38,-1.03
282.17,-1.05
284.99,-1.08
287.84,-1.10
290.72,-1.13
293.63,-1.16
296.57,-1.19
299.53,-1.22
302.53,-1.24
305.55,-1.26
308.61,-1.30
311.69,-1.33
314.81,-1.35
317.96,-1.39
321.14,-1.42
324.35,-1.44
327.59,-1.46
330.87,-1.47
334.18,-1.48
337.52,-1.45
340.90,-1.41
344.30,-1.34
347.75,-1.27
351.23,-1.19
354.74,-1.13
358.28,-1.11
361.87,-1.10
365.49,-1.10
369.14,-1.12
372.83,-1.15
376.56,-1.17
380.33,-1.19
384.13,-1.21
387.97,-1.23
391.85,-1.27
395.77,-1.30
399.73,-1.30
403.72,-1.33
407.76,-1.35
411.84,-1.37
415.96,-1.38
420.12,-1.40
424.32,-1.42
428.56,-1.43
432.85,-1.45
437.18,-1.46
441.55,-1.47
445.96,-1.49
450.42,-1.50
454.93,-1.51
459.48,-1.52
464.07,-1.53
468.71,-1.54
473.40,-1.55
478.13,-1.56
482.91,-1.57
487.74,-1.57
492.62,-1.59
497.55,-1.59
502.52,-1.60
507.55,-1.60
512.62,-1.61
517.75,-1.62
522.93,-1.62
528.16,-1.63
533.44,-1.64
538.77,-1.64
544.16,-1.64
549.60,-1.64
555.10,-1.65
560.65,-1.65
566.25,-1.65
571.92,-1.66
577.64,-1.66
583.41,-1.66
589.25,-1.66
595.14,-1.65
601.09,-1.65
607.10,-1.65
613.17,-1.65
619.30,-1.65
625.50,-1.64
631.75,-1.64
638.07,-1.63
644.45,-1.63
650.89,-1.62
657.40,-1.61
663.98,-1.61
670.62,-1.60
677.32,-1.59
684.10,-1.58
690.94,-1.57
697.85,-1.55
704.83,-1.54
711.87,-1.52
718.99,-1.51
726.18,-1.49
733.44,-1.48
740.78,-1.45
748.19,-1.43
755.67,-1.41
763.23,-1.39
770.86,-1.36
778.57,-1.34
786.35,-1.30
794.22,-1.27
802.16,-1.24
810.18,-1.21
818.28,-1.17
826.46,-1.13
834.73,-1.09
843.08,-1.05
851.51,-1.00
860.02,-0.96
868.62,-0.91
877.31,-0.85
886.08,-0.80
894.94,-0.74
903.89,-0.69
912.93,-0.62
922.06,-0.56
931.28,-0.50
940.59,-0.43
950.00,-0.36
959.50,-0.29
969.09,-0.22
978.78,-0.15
988.57,-0.08
998.46,-0.01
1008.44,0.06
1018.53,0.14
1028.71,0.22
1039.00,0.31
1049.39,0.40
1059.88,0.49
1070.48,0.59
1081.19,0.68
1092.00,0.78
1102.92,0.88
1113.95,0.97
1125.09,1.07
1136.34,1.16
1147.70,1.25
1159.18,1.34
1170.77,1.42
1182.48,1.50
1194.30,1.59
1206.25,1.67
1218.31,1.75
1230.49,1.83
1242.80,1.90
1255.22,1.98
1267.78,2.06
1280.45,2.13
1293.26,2.21
1306.19,2.28
1319.25,2.35
1332.45,2.42
1345.77,2.49
1359.23,2.57
1372.82,2.63
1386.55,2.70
1400.41,2.76
1414.42,2.83
1428.56,2.90
1442.85,2.96
1457.28,3.03
1471.85,3.09
1486.57,3.16
1501.43,3.22
1516.45,3.29
1531.61,3.35
1546.93,3.42
1562.40,3.49
1578.02,3.55
1593.80,3.62
1609.74,3.68
1625.84,3.75
1642.10,3.81
1658.52,3.88
1675.10,3.95
1691.85,4.01
1708.77,4.08
1725.86,4.14
1743.12,4.21
1760.55,4.28
1778.15,4.34
1795.94,4.41
1813.90,4.48
1832.03,4.54
1850.36,4.61
1868.86,4.68
1887.55,4.75
1906.42,4.81
1925.49,4.88
1944.74,4.95
1964.19,5.01
1983.83,5.07
2003.67,5.12
2023.71,5.17
2043.94,5.22
2064.38,5.27
2085.03,5.32
2105.88,5.36
2126.94,5.40
2148.20,5.44
2169.69,5.47
2191.38,5.50
2213.30,5.53
2235.43,5.55
2257.78,5.57
2280.36,5.59
2303.17,5.60
2326.20,5.61
2349.46,5.61
2372.95,5.60
2396.68,5.59
2420.65,5.58
2444.86,5.56
2469.31,5.53
2494.00,5.50
2518.94,5.46
2544.13,5.42
2569.57,5.37
2595.27,5.32
2621.22,5.26
2647.43,5.21
2673.90,5.14
2700.64,5.07
2727.65,5.00
2754.93,4.92
2782.48,4.84
2810.30,4.76
2838.40,4.68
2866.79,4.59
2895.46,4.51
2924.41,4.42
2953.65,4.34
2983.19,4.25
3013.02,4.17
3043.15,4.09
3073.58,4.00
3104.32,3.92
3135.36,3.84
3166.72,3.75
3198.38,3.67
3230.37,3.58
3262.67,3.50
3295.30,3.41
3328.25,3.32
3361.53,3.23
3395.15,3.14
3429.10,3.05
3463.39,2.95
3498.03,2.85
3533.01,2.76
3568.34,2.67
3604.02,2.57
3640.06,2.48
3676.46,2.39
3713.22,2.30
3750.36,2.22
3787.86,2.13
3825.74,2.05
3864.00,1.97
3902.64,1.89
3941.66,1.82
3981.08,1.74
4020.89,1.68
4061.10,1.62
4101.71,1.55
4142.73,1.49
4184.15,1.44
4226.00,1.39
4268.26,1.35
4310.94,1.31
4354.05,1.28
4397.59,1.25
4441.56,1.22
4485.98,1.21
4530.84,1.20
4576.15,1.20
4621.91,1.21
4668.13,1.22
4714.81,1.24
4761.96,1.26
4809.58,1.30
4857.67,1.35
4906.25,1.40
4955.31,1.47
5004.87,1.54
5054.91,1.62
5105.46,1.71
5156.52,1.81
5208.08,1.91
5260.16,2.02
5312.77,2.13
5365.89,2.26
5419.55,2.39
5473.75,2.52
5528.49,2.67
5583.77,2.83
5639.61,2.99
5696.00,3.17
5752.96,3.36
5810.49,3.55
5868.60,3.76
5927.28,3.97
5986.56,4.20
6046.42,4.43
6106.89,4.67
6167.96,4.92
6229.64,5.17
6291.93,5.42
6354.85,5.68
6418.40,5.94
6482.58,6.19
6547.41,6.44
6612.88,6.67
6679.01,6.88
6745.80,7.06
6813.26,7.22
6881.39,7.35
6950.21,7.43
7019.71,7.49
7089.91,7.51
7160.81,7.49
7232.41,7.43
7304.74,7.33
7377.79,7.19
7451.56,7.03
7526.08,6.83
7601.34,6.62
7677.35,6.39
7754.13,6.15
7831.67,5.91
7909.98,5.67
7989.08,5.43
8068.98,5.17
8149.67,4.90
8231.16,4.64
8313.47,4.38
8396.61,4.12
8480.57,3.86
8565.38,3.59
8651.03,3.33
8737.54,3.07
8824.92,2.82
8913.17,2.59
9002.30,2.35
9092.32,2.16
9183.25,1.98
9275.08,1.82
9367.83,1.69
9461.51,1.61
9556.12,1.56
9651.68,1.51
9748.20,1.43
9845.68,1.16
9944.14,0.74
10043.58,0.21
10144.02,-0.37
10245.46,-0.86
10347.91,-1.31
10451.39,-1.70
10555.91,-2.01
10661.46,-2.29
10768.08,-2.53
10875.76,-2.73
10984.52,-2.91
11094.36,-3.05
11205.31,-3.17
11317.36,-3.27
11430.53,-3.34
11544.84,-3.38
11660.29,-3.39
11776.89,-3.39
11894.66,-3.32
12013.60,-3.24
12133.74,-3.13
12255.08,-2.97
12377.63,-2.76
12501.41,-2.52
12626.42,-2.24
12752.68,-1.89
12880.21,-1.44
13009.01,-0.95
13139.10,-0.46
13270.49,0.17
13403.20,0.85
13537.23,1.66
13672.60,2.50
13809.33,3.38
13947.42,4.26
14086.90,4.95
14227.77,5.52
14370.04,5.76
14513.74,5.58
14658.88,4.91
14805.47,4.18
14953.52,3.33
15103.06,2.53
15254.09,1.76
15406.63,1.16
15560.70,0.62
15716.30,0.18
15873.47,-0.17
16032.20,-0.50
16192.52,-0.85
16354.45,-1.30
16517.99,-1.84
16683.17,-2.69
16850.01,-3.76
17018.51,-5.01
17188.69,-6.46
17360.58,-8.02
17534.18,-9.66
17709.53,-11.33
17886.62,-12.90
18065.49,-14.46
18246.14,-16.01
18428.60,-17.49
18612.89,-18.93
18799.02,-20.37
18987.01,-21.92
19176.88,-23.26
19368.65,-24.49
19562.33,-25.80
19757.96,-27.41
19955.54,-29.02
