frequency,raw
20.00,5.76
20.20,5.79
20.40,5.81
20.61,5.84
20.81,5.87
21.02,5.89
21.23,5.92
21.44,5.95
21.66,5.98
21.87,6.00
22.09,6.03
22.31,6.05
22.54,6.07
22.76,6.09
22.99,6.11
23.22,6.13
23.45,6.15
23.69,6.17
23.92,6.19
24.16,6.21
24.40,6.23
24.65,6.25
24.89,6.27
25.14,6.29
25.39,6.31
25.65,6.32
25.91,6.34
26.16,6.36
26.43,6.37
26.69,6.39
26.96,6.40
27.23,6.42
27.50,6.43
27.77,6.44
28.05,6.45
28.33,6.46
28.62,6.47
28.90,6.48
29.19,6.49
29.48,6.49
29.78,6.50
30.08,6.51
30.38,6.51
30.68,6.52
30.99,6.52
31.30,6.53
31.61,6.53
31.93,6.54
32.24,6.54
32.57,6.55
32.89,6.55
33.22,6.56
33.55,6.56
33.89,6.57
34.23,6.57
34.57,6.57
34.92,6.57
35.27,6.56
35.62,6.56
35.97,6.56
36.33,6.56
36.70,6.56
37.06,6.56
37.43,6.56
37.81,6.56
38.19,6.55
38.57,6.55
38.95,6.55
39.34,6.55
39.74,6.54
40.14,6.54
40.54,6.54
40.94,6.53
41.35,6.53
41.76,6.53
42.18,6.53
42.60,6.52
43.03,6.52
43.46,6.51
43.90,6.51
44.33,6.50
44.78,6.49
45.23,6.49
45.68,6.48
46.13,6.48
46.60,6.47
47.06,6.46
47.53,6.45
48.01,6.45
48.49,6.45
48.97,6.45
49.46,6.44
49.96,6.43
50.46,6.41
50.96,6.39
51.47,6.37
51.99,6.36
52.51,6.34
53.03,6.33
53.56,6.32
54.10,6.30
54.64,6.29
55.18,6.27
55.74,6.25
56.29,6.24
56.86,6.22
57.42,6.20
58.00,6.18
58.58,6.16
59.16,6.15
59.76,6.12
60.35,6.10
60.96,6.08
61.57,6.06
62.18,6.04
62.80,6.01
63.43,5.99
64.07,5.97
64.71,5.94
65.35,5.92
66.01,5.90
66.67,5.87
67.33,5.85
68.01,5.82
68.69,5.79
69.37,5.77
70.07,5.74
70.77,5.71
71.48,5.69
72.19,5.66
72.91,5.63
73.64,5.61
74.38,5.58
75.12,5.55
75.87,5.52
76.63,5.49
77.40,5.46
78.17,5.43
78.95,5.40
79.74,5.37
80.54,5.34
81.35,5.31
82.16,5.28
82.98,5.25
83.81,5.22
84.65,5.19
85.50,5.15
86.35,5.12
87.22,5.09
88.09,5.06
88.97,5.02
89.86,4.99
90.76,4.96
91.66,4.93
92.58,4.90
93.51,4.87
94.44,4.84
95.39,4.81
96.34,4.78
97.30,4.74
98.28,4.71
99.26,4.66
100.25,4.62
101.25,4.58
102.27,4.53
103.29,4.49
104.32,4.45
105.37,4.41
106.42,4.37
107.48,4.33
108.56,4.29
109.64,4.26
110.74,4.22
111.85,4.18
112.97,4.14
114.10,4.10
115.24,4.06
116.39,4.02
117.55,3.98
118.73,3.93
119.92,3.89
121.12,3.85
122.33,3.81
123.55,3.76
124.79,3.72
126.03,3.67
127.29,3.63
128.57,3.58
129.85,3.54
131.15,3.49
132.46,3.45
133.79,3.40
135.12,3.36
136.48,3.32
137.84,3.28
139.22,3.24
140.61,3.20
142.02,3.17
143.44,3.14
144.87,3.11
146.32,3.08
147.78,3.05
149.26,3.02
150.75,2.99
152.26,2.96
153.78,2.93
155.32,2.90
156.88,2.87
158.44,2.83
160.03,2.80
161.63,2.76
163.24,2.72
164.88,2.68
166.53,2.64
168.19,2.60
169.87,2.56
171.57,2.52
173.29,2.47
175.02,2.43
176.77,2.39
178.54,2.34
180.32,2.30
182.13,2.25
183.95,2.21
185.79,2.16
187.65,2.12
189.52,2.07
191.42,2.03
193.33,1.98
195.27,1.94
197.22,1.90
199.19,1.85
201.18,1.81
203.19,1.76
205.23,1.72
207.28,1.68
209.35,1.63
211.44,1.59
213.56,1.55
215.69,1.51
217.85,1.46
220.03,1.42
222.23,1.38
224.45,1.34
226.70,1.30
228.96,1.26
231.25,1.22
233.57,1.19
235.90,1.15
238.26,1.11
240.64,1.07
243.05,1.03
245.48,0.99
247.93,0.95
250.41,0.91
252.92,0.88
255.45,0.84
258.00,0.80
260.58,0.77
263.19,0.73
265.82,0.70
268.48,0.67
271.16,0.65
273.87,0.62
276.61,0.60
279.38,0.58
282.17,0.56
284.99,0.54
287.84,0.52
290.72,0.50
293.63,0.47
296.57,0.45
299.53,0.43
302.53,0.40
305.55,0.38
308.61,0.35
311.69,0.32
314.81,0.29
317.96,0.27
321.14,0.24
324.35,0.21
327.59,0.18
330.87,0.15
334.18,0.12
337.52,0.09
340.90,0.06
344.30,0.03
347.75,-0.00
351.23,-0.03
354.74,-0.07
358.28,-0.10
361.87,-0.13
365.49,-0.16
369.14,-0.18
372.83,-0.21
376.56,-0.24
380.33,-0.27
384.13,-0.30
387.97,-0.32
391.85,-0.35
395.77,-0.38
399.73,-0.41
403.72,-0.43
407.76,-0.46
411.84,-0.48
415.96,-0.51
420.12,-0.53
424.32,-0.56
428.56,-0.58
432.85,-0.60
437.18,-0.62
441.55,-0.64
445.96,-0.66
450.42,-0.68
454.93,-0.70
459.48,-0.72
464.07,-0.74
468.71,-0.76
473.40,-0.78
478.13,-0.79
482.91,-0.81
487.74,-0.82
492.62,-0.84
497.55,-0.85
502.52,-0.87
507.55,-0.88
512.62,-0.89
517.75,-0.90
522.93,-0.92
528.16,-0.93
533.44,-0.94
538.77,-0.95
544.16,-0.96
549.60,-0.97
555.10,-0.98
560.65,-0.99
566.25,-0.99
571.92,-1.00
577.64,-1.01
583.41,-1.01
589.25,-1.02
595.14,-1.02
601.09,-1.03
607.10,-1.03
613.17,-1.04
619.30,-1.04
625.50,-1.04
631.75,-1.04
638.07,-1.05
644.45,-1.05
650.89,-1.05
657.40,-1.05
663.98,-1.05
670.62,-1.05
677.32,-1.05
684.10,-1.04
690.94,-1.04
697.85,-1.03
704.83,-1.03
711.87,-1.02
718.99,-1.01
726.18,-1.00
733.44,-0.99
740.78,-0.98
748.19,-0.97
755.67,-0.96
763.23,-0.94
770.86,-0.92
778.57,-0.91
786.35,-0.89
794.22,-0.86
802.16,-0.84
810.18,-0.81
818.28,-0.78
826.46,-0.75
834.73,-0.72
843.08,-0.68
851.51,-0.65
860.02,-0.61
868.62,-0.56
877.31,-0.51
886.08,-0.47
894.94,-0.42
903.89,-0.37
912.93,-0.34
922.06,-0.32
931.28,-0.33
940.59,-0.34
950.00,-0.34
959.50,-0.30
969.09,-0.25
978.78,-0.17
988.57,-0.09
998.46,-0.01
1008.44,0.07
1018.53,0.15
1028.71,0.22
1039.00,0.30
1049.39,0.38
1059.88,0.46
1070.48,0.54
1081.19,0.62
1092.00,0.70
1102.92,0.79
1113.95,0.88
1125.09,0.96
1136.34,1.05
1147.70,1.14
1159.18,1.23
1170.77,1.32
1182.48,1.40
1194.30,1.49
1206.25,1.58
1218.31,1.67
1230.49,1.76
1242.80,1.85
1255.22,1.94
1267.78,2.04
1280.45,2.13
1293.26,2.21
1306.19,2.30
1319.25,2.38
1332.45,2.46
1345.77,2.54
1359.23,2.62
1372.82,2.69
1386.55,2.76
1400.41,2.84
1414.42,2.92
1428.56,3.00
1442.85,3.08
1457.28,3.16
1471.85,3.24
1486.57,3.32
1501.43,3.40
1516.45,3.47
1531.61,3.55
1546.93,3.63
1562.40,3.71
1578.02,3.79
1593.80,3.87
1609.74,3.95
1625.84,4.03
1642.10,4.11
1658.52,4.19
1675.10,4.28
1691.85,4.36
1708.77,4.45
1725.86,4.54
1743.12,4.63
1760.55,4.72
1778.15,4.81
1795.94,4.90
1813.90,4.99
1832.03,5.09
1850.36,5.19
1868.86,5.29
1887.55,5.39
1906.42,5.49
1925.49,5.59
1944.74,5.70
1964.19,5.80
1983.83,5.91
2003.67,6.01
2023.71,6.12
2043.94,6.23
2064.38,6.34
2085.03,6.46
2105.88,6.57
2126.94,6.68
2148.20,6.80
2169.69,6.91
2191.38,7.02
2213.30,7.13
2235.43,7.25
2257.78,7.36
2280.36,7.47
2303.17,7.58
2326.20,7.69
2349.46,7.80
2372.95,7.90
2396.68,8.00
2420.65,8.10
2444.86,8.20
2469.31,8.29
2494.00,8.38
2518.94,8.46
2544.13,8.55
2569.57,8.62
2595.27,8.69
2621.22,8.76
2647.43,8.82
2673.90,8.87
2700.64,8.92
2727.65,8.97
2754.93,9.01
2782.48,9.04
2810.30,9.07
2838.40,9.09
2866.79,9.10
2895.46,9.11
2924.41,9.11
2953.65,9.11
2983.19,9.10
3013.02,9.09
3043.15,9.07
3073.58,9.05
3104.32,9.03
3135.36,8.99
3166.72,8.96
3198.38,8.92
3230.37,8.88
3262.67,8.84
3295.30,8.79
3328.25,8.74
3361.53,8.69
3395.15,8.64
3429.10,8.58
3463.39,8.53
3498.03,8.48
3533.01,8.42
3568.34,8.37
3604.02,8.33
3640.06,8.28
3676.46,8.24
3713.22,8.20
3750.36,8.17
3787.86,8.13
3825.74,8.10
3864.00,8.07
3902.64,8.03
3941.66,8.00
3981.08,7.97
4020.89,7.94
4061.10,7.91
4101.71,7.89
4142.73,7.86
4184.15,7.84
4226.00,7.83
4268.26,7.81
4310.94,7.80
4354.05,7.79
4397.59,7.78
4441.56,7.78
4485.98,7.78
4530.84,7.78
4576.15,7.78
4621.91,7.78
4668.13,7.79
4714.81,7.80
4761.96,7.80
4809.58,7.81
4857.67,7.81
4906.25,7.82
4955.31,7.82
5004.87,7.81
5054.91,7.80
5105.46,7.79
5156.52,7.77
5208.08,7.75
5260.16,7.72
5312.77,7.69
5365.89,7.66
5419.55,7.62
5473.75,7.58
5528.49,7.54
5583.77,7.49
5639.61,7.44
5696.00,7.38
5752.96,7.31
5810.49,7.23
5868.60,7.14
5927.28,7.05
5986.56,6.96
6046.42,6.88
6106.89,6.82
6167.96,6.80
6229.64,6.81
6291.93,6.81
6354.85,6.79
6418.40,6.75
6482.58,6.70
6547.41,6.66
6612.88,6.61
6679.01,6.59
6745.80,6.58
6813.26,6.58
6881.39,6.61
6950.21,6.67
7019.71,6.74
7089.91,6.84
7160.81,6.96
7232.41,7.09
7304.74,7.23
7377.79,7.39
7451.56,7.55
7526.08,7.70
7601.34,7.84
7677.35,7.96
7754.13,8.07
7831.67,8.12
7909.98,8.13
7989.08,8.08
8068.98,7.96
8149.67,7.79
8231.16,7.55
8313.47,7.22
8396.61,6.85
8480.57,6.40
8565.38,5.88
8651.03,5.31
8737.54,4.70
8824.92,4.05
8913.17,3.39
9002.30,2.72
9092.32,2.06
9183.25,1.41
9275.08,0.78
9367.83,0.17
9461.51,-0.40
9556.12,-0.95
9651.68,-1.46
9748.20,-1.95
9845.68,-2.40
9944.14,-2.83
10043.58,-3.22
10144.02,-3.59
10245.46,-3.91
10347.91,-4.21
10451.39,-4.48
10555.91,-4.70
10661.46,-4.90
10768.08,-5.07
10875.76,-5.20
10984.52,-5.29
11094.36,-5.35
11205.31,-5.38
11317.36,-5.35
11430.53,-5.30
11544.84,-5.18
11660.29,-5.02
11776.89,-4.82
11894.66,-4.50
12013.60,-4.17
12133.74,-3.77
12255.08,-3.27
12377.63,-2.72
12501.41,-2.11
12626.42,-1.40
12752.68,-0.62
12880.21,0.29
13009.01,1.27
13139.10,2.24
13270.49,3.31
13403.20,4.36
13537.23,5.18
13672.60,5.76
13809.33,6.09
13947.42,5.91
14086.90,5.39
14227.77,4.68
14370.04,3.85
14513.74,2.89
14658.88,1.99
14805.47,1.17
14953.52,0.50
15103.06,0.02
15254.09,-0.36
15406.63,-0.48
15560.70,-0.54
15716.30,-0.50
15873.47,-0.44
16032.20,-0.40
16192.52,-0.49
16354.45,-0.75
16517.99,-1.14
16683.17,-1.80
16850.01,-2.61
17018.51,-3.53
17188.69,-4.57
17360.58,-5.61
17534.18,-6.64
17709.53,-7.61
17886.62,-8.47
18065.49,-9.24
18246.14,-9.91
18428.60,-10.41
18612.89,-10.81
18799.02,-11.15
18987.01,-11.43
19176.88,-11.77
19368.65,-12.19
19562.33,-12.68
19757.96,-13.22
19955.54,-13.61
