frequency,raw
20.00,3.80
20.20,3.83
20.40,3.86
20.61,3.89
20.81,3.92
21.02,3.95
21.23,3.98
21.44,4.00
21.66,4.03
21.87,4.05
22.09,4.08
22.31,4.10
22.54,4.12
22.76,4.15
22.99,4.17
23.22,4.20
23.45,4.22
23.69,4.25
23.92,4.27
24.16,4.30
24.40,4.32
24.65,4.33
24.89,4.35
25.14,4.36
25.39,4.38
25.65,4.39
25.91,4.41
26.16,4.43
26.43,4.45
26.69,4.48
26.96,4.50
27.23,4.52
27.50,4.54
27.77,4.55
28.05,4.56
28.33,4.57
28.62,4.58
28.90,4.59
29.19,4.60
29.48,4.61
29.78,4.62
30.08,4.64
30.38,4.65
30.68,4.66
30.99,4.67
31.30,4.67
31.61,4.68
31.93,4.69
32.24,4.69
32.57,4.70
32.89,4.71
33.22,4.71
33.55,4.72
33.89,4.72
34.23,4.73
34.57,4.73
34.92,4.74
35.27,4.74
35.62,4.75
35.97,4.75
36.33,4.76
36.70,4.76
37.06,4.76
37.43,4.76
37.81,4.76
38.19,4.77
38.57,4.77
38.95,4.76
39.34,4.76
39.74,4.76
40.14,4.75
40.54,4.75
40.94,4.74
41.35,4.74
41.76,4.73
42.18,4.74
42.60,4.74
43.03,4.74
43.46,4.74
43.90,4.74
44.33,4.74
44.78,4.74
45.23,4.75
45.68,4.75
46.13,4.76
46.60,4.76
47.06,4.75
47.53,4.74
48.01,4.73
48.49,4.71
48.97,4.71
49.46,4.70
49.96,4.69
50.46,4.69
50.96,4.69
51.47,4.68
51.99,4.67
52.51,4.66
53.03,4.65
53.56,4.64
54.10,4.63
54.64,4.61
55.18,4.60
55.74,4.59
56.29,4.58
56.86,4.56
57.42,4.55
58.00,4.54
58.58,4.53
59.16,4.52
59.76,4.50
60.35,4.49
60.96,4.47
61.57,4.45
62.18,4.44
62.80,4.42
63.43,4.40
64.07,4.39
64.71,4.37
65.35,4.35
66.01,4.33
66.67,4.31
67.33,4.29
68.01,4.27
68.69,4.25
69.37,4.23
70.07,4.20
70.77,4.18
71.48,4.16
72.19,4.13
72.91,4.11
73.64,4.09
74.38,4.06
75.12,4.04
75.87,4.02
76.63,3.99
77.40,3.97
78.17,3.95
78.95,3.92
79.74,3.89
80.54,3.87
81.35,3.84
82.16,3.81
82.98,3.79
83.81,3.76
84.65,3.74
85.50,3.71
86.35,3.69
87.22,3.66
88.09,3.64
88.97,3.61
89.86,3.58
90.76,3.55
91.66,3.52
92.58,3.49
93.51,3.45
94.44,3.42
95.39,3.38
96.34,3.34
97.30,3.29
98.28,3.26
99.26,3.23
100.25,3.21
101.25,3.19
102.27,3.17
103.29,3.15
104.32,3.12
105.37,3.09
106.42,3.05
107.48,3.02
108.56,2.99
109.64,2.95
110.74,2.92
111.85,2.89
112.97,2.86
114.10,2.82
115.24,2.79
116.39,2.75
117.55,2.72
118.73,2.68
119.92,2.64
121.12,2.61
122.33,2.57
123.55,2.53
124.79,2.49
126.03,2.45
127.29,2.42
128.57,2.38
129.85,2.34
131.15,2.30
132.46,2.26
133.79,2.22
135.12,2.18
136.48,2.14
137.84,2.10
139.22,2.06
140.61,2.02
142.02,1.98
143.44,1.95
144.87,1.91
146.32,1.87
147.78,1.84
149.26,1.81
150.75,1.77
152.26,1.75
153.78,1.72
155.32,1.70
156.88,1.67
158.44,1.65
160.03,1.62
161.63,1.59
163.24,1.57
164.88,1.54
166.53,1.51
168.19,1.47
169.87,1.44
171.57,1.41
173.29,1.37
175.02,1.33
176.77,1.30
178.54,1.26
180.32,1.22
182.13,1.18
183.95,1.14
185.79,1.10
187.65,1.06
189.52,1.02
191.42,0.98
193.33,0.94
195.27,0.90
197.22,0.86
199.19,0.82
201.18,0.78
203.19,0.74
205.23,0.70
207.28,0.66
209.35,0.62
211.44,0.58
213.56,0.54
215.69,0.50
217.85,0.46
220.03,0.43
222.23,0.39
224.45,0.35
226.70,0.32
228.96,0.28
231.25,0.25
233.57,0.21
235.90,0.18
238.26,0.14
240.64,0.11
243.05,0.08
245.48,0.04
247.93,0.01
250.41,-0.03
252.92,-0.06
255.45,-0.10
258.00,-0.13
260.58,-0.16
263.19,-0.20
265.82,-0.23
268.48,-0.27
271.16,-0.30
273.87,-0.33
276.61,-0.36
279.38,-0.38
282.17,-0.41
284.99,-0.43
287.84,-0.45
290.72,-0.47
293.63,-0.48
296.57,-0.50
299.53,-0.51
302.53,-0.53
305.55,-0.55
308.61,-0.57
311.69,-0.59
314.81,-0.61
317.96,-0.64
321.14,-0.66
324.35,-0.69
327.59,-0.71
330.87,-0.73
334.18,-0.76
337.52,-0.79
340.90,-0.81
344.30,-0.84
347.75,-0.86
351.23,-0.89
354.74,-0.92
358.28,-0.94
361.87,-0.97
365.49,-0.99
369.14,-1.02
372.83,-1.05
376.56,-1.07
380.33,-1.10
384.13,-1.12
387.97,-1.14
391.85,-1.17
395.77,-1.19
399.73,-1.21
403.72,-1.23
407.76,-1.26
411.84,-1.28
415.96,-1.30
420.12,-1.32
424.32,-1.34
428.56,-1.36
432.85,-1.37
437.18,-1.39
441.55,-1.41
445.96,-1.42
450.42,-1.44
454.93,-1.45
459.48,-1.47
464.07,-1.48
468.71,-1.49
473.40,-1.51
478.13,-1.52
482.91,-1.53
487.74,-1.54
492.62,-1.55
497.55,-1.56
502.52,-1.57
507.55,-1.57
512.62,-1.58
517.75,-1.59
522.93,-1.59
528.16,-1.60
533.44,-1.60
538.77,-1.61
544.16,-1.61
549.60,-1.62
555.10,-1.62
560.65,-1.62
566.25,-1.62
571.92,-1.62
577.64,-1.62
583.41,-1.62
589.25,-1.62
595.14,-1.62
601.09,-1.62
607.10,-1.61
613.17,-1.61
619.30,-1.61
625.50,-1.60
631.75,-1.59
638.07,-1.59
644.45,-1.58
650.89,-1.57
657.40,-1.56
663.98,-1.55
670.62,-1.54
677.32,-1.53
684.10,-1.52
690.94,-1.51
697.85,-1.49
704.83,-1.48
711.87,-1.46
718.99,-1.44
726.18,-1.43
733.44,-1.41
740.78,-1.38
748.19,-1.36
755.67,-1.34
763.23,-1.31
770.86,-1.28
778.57,-1.25
786.35,-1.22
794.22,-1.19
802.16,-1.15
810.18,-1.11
818.28,-1.07
826.46,-1.03
834.73,-0.98
843.08,-0.93
851.51,-0.88
860.02,-0.83
868.62,-0.77
877.31,-0.71
886.08,-0.65
894.94,-0.58
903.89,-0.52
912.93,-0.47
922.06,-0.44
931.28,-0.43
940.59,-0.43
950.00,-0.42
959.50,-0.37
969.09,-0.30
978.78,-0.21
988.57,-0.11
998.46,-0.02
1008.44,0.08
1018.53,0.18
1028.71,0.27
1039.00,0.37
1049.39,0.47
1059.88,0.56
1070.48,0.66
1081.19,0.76
1092.00,0.87
1102.92,0.97
1113.95,1.08
1125.09,1.19
1136.34,1.30
1147.70,1.41
1159.18,1.52
1170.77,1.63
1182.48,1.74
1194.30,1.85
1206.25,1.97
1218.31,2.08
1230.49,2.20
1242.80,2.32
1255.22,2.44
1267.78,2.56
1280.45,2.68
1293.26,2.80
1306.19,2.92
1319.25,3.04
1332.45,3.15
1345.77,3.26
1359.23,3.37
1372.82,3.48
1386.55,3.60
1400.41,3.71
1414.42,3.83
1428.56,3.95
1442.85,4.08
1457.28,4.20
1471.85,4.32
1486.57,4.45
1501.43,4.58
1516.45,4.71
1531.61,4.84
1546.93,4.97
1562.40,5.10
1578.02,5.23
1593.80,5.37
1609.74,5.50
1625.84,5.64
1642.10,5.79
1658.52,5.93
1675.10,6.08
1691.85,6.22
1708.77,6.38
1725.86,6.53
1743.12,6.68
1760.55,6.84
1778.15,7.00
1795.94,7.16
1813.90,7.32
1832.03,7.49
1850.36,7.66
1868.86,7.82
1887.55,7.99
1906.42,8.16
1925.49,8.33
1944.74,8.50
1964.19,8.66
1983.83,8.83
2003.67,8.99
2023.71,9.15
2043.94,9.31
2064.38,9.46
2085.03,9.60
2105.88,9.74
2126.94,9.88
2148.20,10.00
2169.69,10.11
2191.38,10.22
2213.30,10.31
2235.43,10.39
2257.78,10.46
2280.36,10.52
2303.17,10.57
2326.20,10.60
2349.46,10.61
2372.95,10.61
2396.68,10.60
2420.65,10.58
2444.86,10.54
2469.31,10.49
2494.00,10.43
2518.94,10.36
2544.13,10.28
2569.57,10.19
2595.27,10.09
2621.22,9.99
2647.43,9.88
2673.90,9.76
2700.64,9.64
2727.65,9.52
2754.93,9.40
2782.48,9.27
2810.30,9.14
2838.40,9.01
2866.79,8.89
2895.46,8.76
2924.41,8.64
2953.65,8.51
2983.19,8.39
3013.02,8.28
3043.15,8.16
3073.58,8.05
3104.32,7.94
3135.36,7.84
3166.72,7.74
3198.38,7.65
3230.37,7.56
3262.67,7.48
3295.30,7.39
3328.25,7.32
3361.53,7.25
3395.15,7.18
3429.10,7.12
3463.39,7.06
3498.03,7.01
3533.01,6.96
3568.34,6.92
3604.02,6.88
3640.06,6.86
3676.46,6.84
3713.22,6.82
3750.36,6.81
3787.86,6.82
3825.74,6.83
3864.00,6.84
3902.64,6.87
3941.66,6.89
3981.08,6.92
4020.89,6.96
4061.10,6.99
4101.71,7.03
4142.73,7.08
4184.15,7.12
4226.00,7.17
4268.26,7.22
4310.94,7.27
4354.05,7.32
4397.59,7.37
4441.56,7.42
4485.98,7.46
4530.84,7.50
4576.15,7.53
4621.91,7.56
4668.13,7.57
4714.81,7.57
4761.96,7.57
4809.58,7.54
4857.67,7.51
4906.25,7.45
4955.31,7.39
5004.87,7.30
5054.91,7.20
5105.46,7.08
5156.52,6.96
5208.08,6.81
5260.16,6.65
5312.77,6.49
5365.89,6.31
5419.55,6.13
5473.75,5.95
5528.49,5.77
5583.77,5.59
5639.61,5.42
5696.00,5.24
5752.96,5.08
5810.49,4.91
5868.60,4.76
5927.28,4.61
5986.56,4.47
6046.42,4.37
6106.89,4.29
6167.96,4.25
6229.64,4.23
6291.93,4.21
6354.85,4.15
6418.40,4.07
6482.58,3.96
6547.41,3.85
6612.88,3.74
6679.01,3.65
6745.80,3.58
6813.26,3.54
6881.39,3.54
6950.21,3.57
7019.71,3.64
7089.91,3.74
7160.81,3.89
7232.41,4.06
7304.74,4.25
7377.79,4.48
7451.56,4.74
7526.08,5.01
7601.34,5.30
7677.35,5.58
7754.13,5.87
7831.67,6.10
7909.98,6.30
7989.08,6.45
8068.98,6.49
8149.67,6.46
8231.16,6.33
8313.47,6.07
8396.61,5.73
8480.57,5.28
8565.38,4.72
8651.03,4.11
8737.54,3.43
8824.92,2.72
8913.17,1.98
9002.30,1.24
9092.32,0.52
9183.25,-0.19
9275.08,-0.88
9367.83,-1.54
9461.51,-2.16
9556.12,-2.75
9651.68,-3.30
9748.20,-3.83
9845.68,-4.30
9944.14,-4.75
10043.58,-5.16
10144.02,-5.54
10245.46,-5.87
10347.91,-6.18
10451.39,-6.45
10555.91,-6.68
10661.46,-6.88
10768.08,-7.04
10875.76,-7.16
10984.52,-7.24
11094.36,-7.28
11205.31,-7.28
11317.36,-7.22
11430.53,-7.13
11544.84,-6.97
11660.29,-6.75
11776.89,-6.50
11894.66,-6.13
12013.60,-5.74
12133.74,-5.27
12255.08,-4.72
12377.63,-4.10
12501.41,-3.43
12626.42,-2.67
12752.68,-1.86
12880.21,-0.98
13009.01,-0.07
13139.10,0.83
13270.49,1.70
13403.20,2.53
13537.23,3.06
13672.60,3.34
13809.33,3.37
13947.42,2.97
14086.90,2.32
14227.77,1.52
14370.04,0.66
14513.74,-0.25
14658.88,-1.09
14805.47,-1.85
14953.52,-2.49
15103.06,-2.97
15254.09,-3.38
15406.63,-3.62
15560.70,-3.81
15716.30,-3.93
15873.47,-4.02
16032.20,-4.12
16192.52,-4.28
16354.45,-4.54
16517.99,-4.87
16683.17,-5.36
16850.01,-5.94
17018.51,-6.59
17188.69,-7.32
17360.58,-8.07
17534.18,-8.82
17709.53,-9.55
17886.62,-10.21
18065.49,-10.83
18246.14,-11.38
18428.60,-11.83
18612.89,-12.23
18799.02,-12.60
18987.01,-12.97
19176.88,-13.45
19368.65,-14.06
19562.33,-14.75
19757.96,-15.50
19955.54,-16.03
