frequency,raw
20.00,4.98
20.20,5.01
20.40,5.04
20.61,5.07
20.81,5.10
21.02,5.13
21.23,5.15
21.44,5.18
21.66,5.20
21.87,5.23
22.09,5.25
22.31,5.27
22.54,5.29
22.76,5.31
22.99,5.33
23.22,5.36
23.45,5.38
23.69,5.40
23.92,5.42
24.16,5.45
24.40,5.47
24.65,5.49
24.89,5.51
25.14,5.53
25.39,5.54
25.65,5.56
25.91,5.58
26.16,5.59
26.43,5.61
26.69,5.63
26.96,5.64
27.23,5.66
27.50,5.67
27.77,5.68
28.05,5.70
28.33,5.71
28.62,5.72
28.90,5.73
29.19,5.74
29.48,5.75
29.78,5.76
30.08,5.77
30.38,5.78
30.68,5.78
30.99,5.79
31.30,5.79
31.61,5.80
31.93,5.80
32.24,5.81
32.57,5.81
32.89,5.81
33.22,5.82
33.55,5.82
33.89,5.82
34.23,5.82
34.57,5.82
34.92,5.82
35.27,5.82
35.62,5.82
35.97,5.82
36.33,5.82
36.70,5.82
37.06,5.82
37.43,5.83
37.81,5.83
38.19,5.83
38.57,5.83
38.95,5.83
39.34,5.83
39.74,5.82
40.14,5.82
40.54,5.82
40.94,5.82
41.35,5.82
41.76,5.81
42.18,5.81
42.60,5.81
43.03,5.80
43.46,5.79
43.90,5.79
44.33,5.78
44.78,5.77
45.23,5.76
45.68,5.75
46.13,5.74
46.60,5.73
47.06,5.71
47.53,5.70
48.01,5.68
48.49,5.66
48.97,5.65
49.46,5.65
49.96,5.65
50.46,5.66
50.96,5.66
51.47,5.66
51.99,5.66
52.51,5.65
53.03,5.64
53.56,5.63
54.10,5.62
54.64,5.60
55.18,5.58
55.74,5.57
56.29,5.55
56.86,5.54
57.42,5.53
58.00,5.51
58.58,5.49
59.16,5.47
59.76,5.46
60.35,5.44
60.96,5.42
61.57,5.39
62.18,5.37
62.80,5.35
63.43,5.33
64.07,5.31
64.71,5.29
65.35,5.27
66.01,5.25
66.67,5.22
67.33,5.20
68.01,5.17
68.69,5.15
69.37,5.12
70.07,5.10
70.77,5.07
71.48,5.05
72.19,5.03
72.91,5.00
73.64,4.97
74.38,4.95
75.12,4.92
75.87,4.89
76.63,4.87
77.40,4.84
78.17,4.82
78.95,4.79
79.74,4.76
80.54,4.73
81.35,4.70
82.16,4.67
82.98,4.64
83.81,4.61
84.65,4.58
85.50,4.55
86.35,4.52
87.22,4.49
88.09,4.46
88.97,4.43
89.86,4.40
90.76,4.37
91.66,4.33
92.58,4.30
93.51,4.26
94.44,4.23
95.39,4.20
96.34,4.17
97.30,4.13
98.28,4.10
99.26,4.06
100.25,4.02
101.25,3.99
102.27,3.96
103.29,3.92
104.32,3.88
105.37,3.84
106.42,3.80
107.48,3.76
108.56,3.73
109.64,3.69
110.74,3.66
111.85,3.62
112.97,3.58
114.10,3.54
115.24,3.51
116.39,3.47
117.55,3.43
118.73,3.39
119.92,3.34
121.12,3.30
122.33,3.26
123.55,3.22
124.79,3.18
126.03,3.13
127.29,3.09
128.57,3.05
129.85,3.01
131.15,2.97
132.46,2.93
133.79,2.89
135.12,2.85
136.48,2.82
137.84,2.78
139.22,2.75
140.61,2.72
142.02,2.68
143.44,2.65
144.87,2.63
146.32,2.60
147.78,2.57
149.26,2.54
150.75,2.51
152.26,2.48
153.78,2.45
155.32,2.42
156.88,2.38
158.44,2.35
160.03,2.31
161.63,2.27
163.24,2.23
164.88,2.19
166.53,2.15
168.19,2.11
169.87,2.07
171.57,2.03
173.29,1.99
175.02,1.95
176.77,1.91
178.54,1.86
180.32,1.82
182.13,1.78
183.95,1.74
185.79,1.69
187.65,1.65
189.52,1.61
191.42,1.56
193.33,1.52
195.27,1.48
197.22,1.44
199.19,1.40
201.18,1.35
203.19,1.31
205.23,1.27
207.28,1.23
209.35,1.19
211.44,1.15
213.56,1.11
215.69,1.07
217.85,1.03
220.03,0.99
222.23,0.95
224.45,0.91
226.70,0.88
228.96,0.84
231.25,0.80
233.57,0.77
235.90,0.73
238.26,0.69
240.64,0.66
243.05,0.62
245.48,0.58
247.93,0.55
250.41,0.51
252.92,0.47
255.45,0.44
258.00,0.40
260.58,0.37
263.19,0.34
265.82,0.31
268.48,0.29
271.16,0.26
273.87,0.24
276.61,0.22
279.38,0.20
282.17,0.18
284.99,0.15
287.84,0.13
290.72,0.11
293.63,0.09
296.57,0.07
299.53,0.04
302.53,0.02
305.55,-0.01
308.61,-0.04
311.69,-0.06
314.81,-0.09
317.96,-0.12
321.14,-0.15
324.35,-0.18
327.59,-0.20
330.87,-0.23
334.18,-0.26
337.52,-0.29
340.90,-0.32
344.30,-0.34
347.75,-0.37
351.23,-0.40
354.74,-0.43
358.28,-0.46
361.87,-0.48
365.49,-0.51
369.14,-0.54
372.83,-0.57
376.56,-0.59
380.33,-0.62
384.13,-0.64
387.97,-0.67
391.85,-0.69
395.77,-0.72
399.73,-0.74
403.72,-0.77
407.76,-0.79
411.84,-0.81
415.96,-0.84
420.12,-0.86
424.32,-0.88
428.56,-0.90
432.85,-0.92
437.18,-0.94
441.55,-0.96
445.96,-0.98
450.42,-1.00
454.93,-1.01
459.48,-1.03
464.07,-1.05
468.71,-1.06
473.40,-1.08
478.13,-1.09
482.91,-1.10
487.74,-1.12
492.62,-1.13
497.55,-1.14
502.52,-1.15
507.55,-1.16
512.62,-1.17
517.75,-1.18
522.93,-1.19
528.16,-1.20
533.44,-1.21
538.77,-1.21
544.16,-1.22
549.60,-1.23
555.10,-1.23
560.65,-1.24
566.25,-1.24
571.92,-1.25
577.64,-1.25
583.41,-1.26
589.25,-1.26
595.14,-1.26
601.09,-1.26
607.10,-1.26
613.17,-1.26
619.30,-1.27
625.50,-1.27
631.75,-1.26
638.07,-1.26
644.45,-1.26
650.89,-1.26
657.40,-1.26
663.98,-1.25
670.62,-1.25
677.32,-1.24
684.10,-1.23
690.94,-1.23
697.85,-1.22
704.83,-1.21
711.87,-1.20
718.99,-1.19
726.18,-1.17
733.44,-1.16
740.78,-1.14
748.19,-1.13
755.67,-1.11
763.23,-1.09
770.86,-1.07
778.57,-1.04
786.35,-1.02
794.22,-0.99
802.16,-0.96
810.18,-0.93
818.28,-0.90
826.46,-0.86
834.73,-0.83
843.08,-0.78
851.51,-0.74
860.02,-0.69
868.62,-0.64
877.31,-0.59
886.08,-0.54
894.94,-0.49
903.89,-0.45
912.93,-0.41
922.06,-0.41
931.28,-0.40
940.59,-0.40
950.00,-0.38
959.50,-0.33
969.09,-0.26
978.78,-0.18
988.57,-0.10
998.46,-0.01
1008.44,0.07
1018.53,0.15
1028.71,0.24
1039.00,0.32
1049.39,0.41
1059.88,0.49
1070.48,0.58
1081.19,0.66
1092.00,0.75
1102.92,0.85
1113.95,0.94
1125.09,1.04
1136.34,1.13
1147.70,1.23
1159.18,1.32
1170.77,1.42
1182.48,1.51
1194.30,1.61
1206.25,1.71
1218.31,1.81
1230.49,1.91
1242.80,2.01
1255.22,2.11
1267.78,2.21
1280.45,2.31
1293.26,2.41
1306.19,2.51
1319.25,2.61
1332.45,2.70
1345.77,2.79
1359.23,2.88
1372.82,2.96
1386.55,3.05
1400.41,3.14
1414.42,3.24
1428.56,3.33
1442.85,3.43
1457.28,3.53
1471.85,3.63
1486.57,3.72
1501.43,3.82
1516.45,3.92
1531.61,4.02
1546.93,4.12
1562.40,4.22
1578.02,4.33
1593.80,4.43
1609.74,4.53
1625.84,4.64
1642.10,4.75
1658.52,4.86
1675.10,4.97
1691.85,5.08
1708.77,5.20
1725.86,5.32
1743.12,5.44
1760.55,5.56
1778.15,5.69
1795.94,5.81
1813.90,5.94
1832.03,6.08
1850.36,6.21
1868.86,6.35
1887.55,6.49
1906.42,6.63
1925.49,6.77
1944.74,6.92
1964.19,7.07
1983.83,7.22
2003.67,7.37
2023.71,7.53
2043.94,7.68
2064.38,7.84
2085.03,8.00
2105.88,8.16
2126.94,8.32
2148.20,8.48
2169.69,8.64
2191.38,8.80
2213.30,8.96
2235.43,9.12
2257.78,9.28
2280.36,9.43
2303.17,9.58
2326.20,9.73
2349.46,9.87
2372.95,10.00
2396.68,10.13
2420.65,10.25
2444.86,10.36
2469.31,10.47
2494.00,10.56
2518.94,10.65
2544.13,10.72
2569.57,10.78
2595.27,10.83
2621.22,10.88
2647.43,10.90
2673.90,10.92
2700.64,10.93
2727.65,10.92
2754.93,10.90
2782.48,10.87
2810.30,10.83
2838.40,10.78
2866.79,10.73
2895.46,10.66
2924.41,10.59
2953.65,10.51
2983.19,10.42
3013.02,10.33
3043.15,10.23
3073.58,10.13
3104.32,10.03
3135.36,9.92
3166.72,9.82
3198.38,9.71
3230.37,9.60
3262.67,9.49
3295.30,9.39
3328.25,9.28
3361.53,9.17
3395.15,9.07
3429.10,8.97
3463.39,8.88
3498.03,8.79
3533.01,8.71
3568.34,8.63
3604.02,8.57
3640.06,8.50
3676.46,8.45
3713.22,8.39
3750.36,8.35
3787.86,8.30
3825.74,8.26
3864.00,8.22
3902.64,8.19
3941.66,8.16
3981.08,8.14
4020.89,8.12
4061.10,8.10
4101.71,8.10
4142.73,8.10
4184.15,8.11
4226.00,8.12
4268.26,8.15
4310.94,8.17
4354.05,8.21
4397.59,8.26
4441.56,8.31
4485.98,8.37
4530.84,8.43
4576.15,8.50
4621.91,8.58
4668.13,8.67
4714.81,8.76
4761.96,8.85
4809.58,8.94
4857.67,9.04
4906.25,9.14
4955.31,9.23
5004.87,9.33
5054.91,9.41
5105.46,9.50
5156.52,9.57
5208.08,9.64
5260.16,9.70
5312.77,9.75
5365.89,9.78
5419.55,9.80
5473.75,9.81
5528.49,9.80
5583.77,9.77
5639.61,9.72
5696.00,9.65
5752.96,9.55
5810.49,9.44
5868.60,9.29
5927.28,9.14
5986.56,8.96
6046.42,8.78
6106.89,8.62
6167.96,8.48
6229.64,8.36
6291.93,8.24
6354.85,8.09
6418.40,7.92
6482.58,7.74
6547.41,7.56
6612.88,7.38
6679.01,7.23
6745.80,7.10
6813.26,7.00
6881.39,6.93
6950.21,6.90
7019.71,6.90
7089.91,6.94
7160.81,7.02
7232.41,7.12
7304.74,7.25
7377.79,7.42
7451.56,7.61
7526.08,7.82
7601.34,8.04
7677.35,8.28
7754.13,8.52
7831.67,8.72
7909.98,8.90
7989.08,9.04
8068.98,9.08
8149.67,9.05
8231.16,8.93
8313.47,8.68
8396.61,8.35
8480.57,7.90
8565.38,7.34
8651.03,6.72
8737.54,6.04
8824.92,5.31
8913.17,4.56
9002.30,3.80
9092.32,3.05
9183.25,2.31
9275.08,1.60
9367.83,0.92
9461.51,0.28
9556.12,-0.33
9651.68,-0.90
9748.20,-1.44
9845.68,-1.92
9944.14,-2.38
10043.58,-2.80
10144.02,-3.18
10245.46,-3.52
10347.91,-3.82
10451.39,-4.09
10555.91,-4.31
10661.46,-4.50
10768.08,-4.65
10875.76,-4.75
10984.52,-4.81
11094.36,-4.83
11205.31,-4.81
11317.36,-4.72
11430.53,-4.59
11544.84,-4.39
11660.29,-4.13
11776.89,-3.82
11894.66,-3.37
12013.60,-2.90
12133.74,-2.34
12255.08,-1.69
12377.63,-0.97
12501.41,-0.20
12626.42,0.60
12752.68,1.39
12880.21,2.05
13009.01,2.64
13139.10,3.23
13270.49,3.47
13403.20,3.59
13537.23,3.36
13672.60,2.96
13809.33,2.40
13947.42,1.66
14086.90,0.87
14227.77,0.06
14370.04,-0.71
14513.74,-1.42
14658.88,-1.97
14805.47,-2.44
14953.52,-2.75
15103.06,-2.87
15254.09,-2.91
15406.63,-2.66
15560.70,-2.32
15716.30,-1.83
15873.47,-1.28
16032.20,-0.75
16192.52,-0.32
16354.45,-0.11
16517.99,-0.08
16683.17,-0.44
16850.01,-1.05
17018.51,-1.84
17188.69,-2.89
17360.58,-4.00
17534.18,-5.14
17709.53,-6.25
17886.62,-7.30
18065.49,-8.28
18246.14,-9.19
18428.60,-9.98
18612.89,-10.65
18799.02,-11.24
18987.01,-11.77
19176.88,-12.38
19368.65,-13.10
19562.33,-13.94
19757.96,-14.83
19955.54,-15.48
