frequency,raw
20.00,16.16
20.20,16.15
20.40,16.13
20.61,16.12
20.81,16.10
21.02,16.08
21.23,16.06
21.44,16.03
21.66,16.01
21.87,15.99
22.09,15.96
22.31,15.94
22.54,15.91
22.76,15.88
22.99,15.86
23.22,15.83
23.45,15.80
23.69,15.77
23.92,15.74
24.16,15.71
24.40,15.69
24.65,15.66
24.89,15.64
25.14,15.62
25.39,15.59
25.65,15.57
25.91,15.55
26.16,15.53
26.43,15.51
26.69,15.49
26.96,15.46
27.23,15.44
27.50,15.42
27.77,15.39
28.05,15.37
28.33,15.34
28.62,15.32
28.90,15.29
29.19,15.27
29.48,15.24
29.78,15.21
30.08,15.18
30.38,15.15
30.68,15.12
30.99,15.08
31.30,15.05
31.61,15.02
31.93,14.98
32.24,14.95
32.57,14.91
32.89,14.88
33.22,14.84
33.55,14.81
33.89,14.78
34.23,14.75
34.57,14.72
34.92,14.69
35.27,14.66
35.62,14.63
35.97,14.60
36.33,14.56
36.70,14.53
37.06,14.50
37.43,14.47
37.81,14.44
38.19,14.40
38.57,14.37
38.95,14.33
39.34,14.30
39.74,14.26
40.14,14.23
40.54,14.19
40.94,14.15
41.35,14.11
41.76,14.08
42.18,14.04
42.60,14.00
43.03,13.97
43.46,13.93
43.90,13.89
44.33,13.86
44.78,13.82
45.23,13.79
45.68,13.75
46.13,13.72
46.60,13.68
47.06,13.64
47.53,13.60
48.01,13.56
48.49,13.52
48.97,13.49
49.46,13.45
49.96,13.41
50.46,13.37
50.96,13.33
51.47,13.29
51.99,13.25
52.51,13.21
53.03,13.17
53.56,13.13
54.10,13.08
54.64,13.04
55.18,12.99
55.74,12.95
56.29,12.90
56.86,12.85
57.42,12.80
58.00,12.76
58.58,12.71
59.16,12.66
59.76,12.61
60.35,12.56
60.96,12.51
61.57,12.46
62.18,12.41
62.80,12.36
63.43,12.30
64.07,12.25
64.71,12.20
65.35,12.14
66.01,12.09
66.67,12.03
67.33,11.98
68.01,11.93
68.69,11.87
69.37,11.82
70.07,11.76
70.77,11.71
71.48,11.65
72.19,11.59
72.91,11.53
73.64,11.48
74.38,11.42
75.12,11.36
75.87,11.30
76.63,11.24
77.40,11.19
78.17,11.13
78.95,11.07
79.74,11.01
80.54,10.95
81.35,10.88
82.16,10.82
82.98,10.76
83.81,10.70
84.65,10.64
85.50,10.58
86.35,10.51
87.22,10.45
88.09,10.39
88.97,10.33
89.86,10.26
90.76,10.20
91.66,10.14
92.58,10.07
93.51,10.01
94.44,9.94
95.39,9.88
96.34,9.81
97.30,9.74
98.28,9.67
99.26,9.60
100.25,9.54
101.25,9.47
102.27,9.40
103.29,9.33
104.32,9.26
105.37,9.19
106.42,9.12
107.48,9.05
108.56,8.98
109.64,8.91
110.74,8.84
111.85,8.77
112.97,8.70
114.10,8.63
115.24,8.56
116.39,8.48
117.55,8.41
118.73,8.34
119.92,8.27
121.12,8.19
122.33,8.12
123.55,8.05
124.79,7.97
126.03,7.90
127.29,7.82
128.57,7.75
129.85,7.67
131.15,7.59
132.46,7.52
133.79,7.44
135.12,7.36
136.48,7.29
137.84,7.21
139.22,7.13
140.61,7.05
142.02,6.98
143.44,6.90
144.87,6.82
146.32,6.74
147.78,6.66
149.26,6.58
150.75,6.50
152.26,6.42
153.78,6.34
155.32,6.26
156.88,6.18
158.44,6.10
160.03,6.02
161.63,5.94
163.24,5.86
164.88,5.78
166.53,5.69
168.19,5.61
169.87,5.53
171.57,5.45
173.29,5.36
175.02,5.28
176.77,5.19
178.54,5.11
180.32,5.03
182.13,4.94
183.95,4.86
185.79,4.78
187.65,4.69
189.52,4.61
191.42,4.52
193.33,4.44
195.27,4.36
197.22,4.27
199.19,4.19
201.18,4.10
203.19,4.02
205.23,3.94
207.28,3.86
209.35,3.77
211.44,3.69
213.56,3.60
215.69,3.52
217.85,3.44
220.03,3.36
222.23,3.28
224.45,3.20
226.70,3.11
228.96,3.03
231.25,2.95
233.57,2.87
235.90,2.79
238.26,2.71
240.64,2.63
243.05,2.55
245.48,2.47
247.93,2.39
250.41,2.31
252.92,2.23
255.45,2.15
258.00,2.07
260.58,1.99
263.19,1.91
265.82,1.83
268.48,1.76
271.16,1.68
273.87,1.61
276.61,1.54
279.38,1.47
282.17,1.40
284.99,1.34
287.84,1.27
290.72,1.21
293.63,1.14
296.57,1.07
299.53,1.01
302.53,0.95
305.55,0.88
308.61,0.82
311.69,0.75
314.81,0.69
317.96,0.62
321.14,0.56
324.35,0.50
327.59,0.43
330.87,0.37
334.18,0.31
337.52,0.25
340.90,0.19
344.30,0.13
347.75,0.06
351.23,-0.00
354.74,-0.06
358.28,-0.12
361.87,-0.18
365.49,-0.24
369.14,-0.29
372.83,-0.35
376.56,-0.40
380.33,-0.46
384.13,-0.51
387.97,-0.56
391.85,-0.62
395.77,-0.67
399.73,-0.71
403.72,-0.77
407.76,-0.82
411.84,-0.86
415.96,-0.91
420.12,-0.96
424.32,-1.00
428.56,-1.04
432.85,-1.08
437.18,-1.12
441.55,-1.16
445.96,-1.20
450.42,-1.23
454.93,-1.27
459.48,-1.30
464.07,-1.33
468.71,-1.36
473.40,-1.39
478.13,-1.42
482.91,-1.44
487.74,-1.46
492.62,-1.49
497.55,-1.51
502.52,-1.53
507.55,-1.55
512.62,-1.57
517.75,-1.59
522.93,-1.61
528.16,-1.63
533.44,-1.64
538.77,-1.65
544.16,-1.67
549.60,-1.68
555.10,-1.69
560.65,-1.70
566.25,-1.71
571.92,-1.71
577.64,-1.72
583.41,-1.72
589.25,-1.72
595.14,-1.72
601.09,-1.72
607.10,-1.73
613.17,-1.73
619.30,-1.72
625.50,-1.72
631.75,-1.72
638.07,-1.71
644.45,-1.70
650.89,-1.69
657.40,-1.68
663.98,-1.67
670.62,-1.66
677.32,-1.64
684.10,-1.63
690.94,-1.61
697.85,-1.59
704.83,-1.57
711.87,-1.56
718.99,-1.54
726.18,-1.51
733.44,-1.49
740.78,-1.47
748.19,-1.43
755.67,-1.41
763.23,-1.38
770.86,-1.35
778.57,-1.32
786.35,-1.29
794.22,-1.25
802.16,-1.22
810.18,-1.18
818.28,-1.14
826.46,-1.10
834.73,-1.05
843.08,-1.01
851.51,-0.96
860.02,-0.91
868.62,-0.86
877.31,-0.81
886.08,-0.76
894.94,-0.71
903.89,-0.65
912.93,-0.59
922.06,-0.53
931.28,-0.47
940.59,-0.40
950.00,-0.34
959.50,-0.27
969.09,-0.20
978.78,-0.14
988.57,-0.08
998.46,-0.01
1008.44,0.05
1018.53,0.12
1028.71,0.19
1039.00,0.26
1049.39,0.33
1059.88,0.40
1070.48,0.47
1081.19,0.54
1092.00,0.61
1102.92,0.68
1113.95,0.76
1125.09,0.84
1136.34,0.91
1147.70,0.99
1159.18,1.06
1170.77,1.13
1182.48,1.20
1194.30,1.26
1206.25,1.32
1218.31,1.39
1230.49,1.47
1242.80,1.54
1255.22,1.61
1267.78,1.69
1280.45,1.75
1293.26,1.82
1306.19,1.89
1319.25,1.95
1332.45,2.01
1345.77,2.06
1359.23,2.08
1372.82,2.14
1386.55,2.19
1400.41,2.25
1414.42,2.30
1428.56,2.34
1442.85,2.40
1457.28,2.45
1471.85,2.50
1486.57,2.54
1501.43,2.59
1516.45,2.63
1531.61,2.67
1546.93,2.71
1562.40,2.75
1578.02,2.80
1593.80,2.83
1609.74,2.88
1625.84,2.92
1642.10,2.96
1658.52,3.00
1675.10,3.04
1691.85,3.09
1708.77,3.13
1725.86,3.17
1743.12,3.22
1760.55,3.26
1778.15,3.31
1795.94,3.36
1813.90,3.41
1832.03,3.46
1850.36,3.51
1868.86,3.56
1887.55,3.62
1906.42,3.67
1925.49,3.74
1944.74,3.80
1964.19,3.87
1983.83,3.95
2003.67,4.03
2023.71,4.13
2043.94,4.24
2064.38,4.36
2085.03,4.50
2105.88,4.66
2126.94,4.84
2148.20,5.03
2169.69,5.24
2191.38,5.45
2213.30,5.67
2235.43,5.88
2257.78,6.10
2280.36,6.31
2303.17,6.52
2326.20,6.73
2349.46,6.93
2372.95,7.13
2396.68,7.32
2420.65,7.51
2444.86,7.69
2469.31,7.87
2494.00,8.03
2518.94,8.19
2544.13,8.34
2569.57,8.48
2595.27,8.60
2621.22,8.71
2647.43,8.79
2673.90,8.84
2700.64,8.88
2727.65,8.89
2754.93,8.87
2782.48,8.83
2810.30,8.78
2838.40,8.71
2866.79,8.63
2895.46,8.55
2924.41,8.46
2953.65,8.36
2983.19,8.27
3013.02,8.17
3043.15,8.08
3073.58,7.98
3104.32,7.89
3135.36,7.79
3166.72,7.69
3198.38,7.59
3230.37,7.47
3262.67,7.36
3295.30,7.24
3328.25,7.12
3361.53,6.99
3395.15,6.86
3429.10,6.72
3463.39,6.59
3498.03,6.45
3533.01,6.31
3568.34,6.17
3604.02,6.03
3640.06,5.89
3676.46,5.75
3713.22,5.62
3750.36,5.48
3787.86,5.35
3825.74,5.22
3864.00,5.09
3902.64,4.97
3941.66,4.85
3981.08,4.73
4020.89,4.63
4061.10,4.53
4101.71,4.43
4142.73,4.35
4184.15,4.27
4226.00,4.19
4268.26,4.12
4310.94,4.06
4354.05,3.99
4397.59,3.93
4441.56,3.88
4485.98,3.83
4530.84,3.78
4576.15,3.73
4621.91,3.69
4668.13,3.66
4714.81,3.62
4761.96,3.59
4809.58,3.56
4857.67,3.54
4906.25,3.51
4955.31,3.49
5004.87,3.46
5054.91,3.45
5105.46,3.42
5156.52,3.39
5208.08,3.37
5260.16,3.35
5312.77,3.33
5365.89,3.29
5419.55,3.26
5473.75,3.23
5528.49,3.20
5583.77,3.17
5639.61,3.13
5696.00,3.09
5752.96,3.05
5810.49,3.01
5868.60,2.96
5927.28,2.91
5986.56,2.86
6046.42,2.80
6106.89,2.74
6167.96,2.67
6229.64,2.60
6291.93,2.52
6354.85,2.46
6418.40,2.40
6482.58,2.34
6547.41,2.29
6612.88,2.25
6679.01,2.22
6745.80,2.21
6813.26,2.21
6881.39,2.23
6950.21,2.26
7019.71,2.30
7089.91,2.36
7160.81,2.45
7232.41,2.56
7304.74,2.69
7377.79,2.78
7451.56,2.88
7526.08,2.97
7601.34,3.05
7677.35,3.18
7754.13,3.31
7831.67,3.37
7909.98,3.41
7989.08,3.42
8068.98,3.40
8149.67,3.32
8231.16,3.16
8313.47,2.89
8396.61,2.56
8480.57,2.13
8565.38,1.68
8651.03,1.28
8737.54,0.97
8824.92,0.93
8913.17,1.12
9002.30,1.40
9092.32,1.74
9183.25,1.91
9275.08,1.93
9367.83,1.70
9461.51,1.27
9556.12,0.74
9651.68,0.14
9748.20,-0.48
9845.68,-1.08
9944.14,-1.65
10043.58,-2.18
10144.02,-2.67
10245.46,-3.10
10347.91,-3.49
10451.39,-3.83
10555.91,-4.11
10661.46,-4.33
10768.08,-4.50
10875.76,-4.62
10984.52,-4.67
11094.36,-4.68
11205.31,-4.65
11317.36,-4.56
11430.53,-4.45
11544.84,-4.30
11660.29,-4.10
11776.89,-3.92
11894.66,-3.76
12013.60,-3.61
12133.74,-3.52
12255.08,-3.53
12377.63,-3.62
12501.41,-3.83
12626.42,-4.16
12752.68,-4.63
12880.21,-5.24
13009.01,-5.89
13139.10,-6.55
13270.49,-7.28
13403.20,-8.01
13537.23,-8.71
13672.60,-9.36
13809.33,-9.97
13947.42,-10.50
14086.90,-10.98
14227.77,-11.42
14370.04,-11.84
14513.74,-12.19
14658.88,-12.23
14805.47,-12.12
14953.52,-11.74
15103.06,-11.17
15254.09,-10.51
15406.63,-9.69
15560.70,-8.86
15716.30,-8.02
15873.47,-7.44
16032.20,-7.04
16192.52,-7.03
16354.45,-7.60
16517.99,-8.30
16683.17,-7.46
16850.01,-6.27
17018.51,-5.11
17188.69,-6.05
17360.58,-9.00
17534.18,-12.95
17709.53,-16.40
17886.62,-18.86
18065.49,-20.50
18246.14,-21.22
18428.60,-21.02
18612.89,-20.38
18799.02,-19.40
18987.01,-18.24
19176.88,-17.27
19368.65,-16.77
19562.33,-16.67
19757.96,-16.83
19955.54,-16.99
