frequency,raw
20.00,12.29
20.20,12.28
20.40,12.27
20.61,12.26
20.81,12.26
21.02,12.25
21.23,12.25
21.44,12.24
21.66,12.22
21.87,12.20
22.09,12.17
22.31,12.14
22.54,12.11
22.76,12.07
22.99,12.02
23.22,11.96
23.45,11.88
23.69,11.79
23.92,11.68
24.16,11.57
24.40,11.46
24.65,11.37
24.89,11.33
25.14,11.33
25.39,11.37
25.65,11.46
25.91,11.55
26.16,11.64
26.43,11.68
26.69,11.69
26.96,11.66
27.23,11.61
27.50,11.54
27.77,11.49
28.05,11.45
28.33,11.43
28.62,11.43
28.90,11.42
29.19,11.41
29.48,11.39
29.78,11.33
30.08,11.28
30.38,11.21
30.68,11.16
30.99,11.13
31.30,11.10
31.61,11.07
31.93,11.04
32.24,11.01
32.57,10.98
32.89,10.95
33.22,10.91
33.55,10.86
33.89,10.78
34.23,10.69
34.57,10.61
34.92,10.56
35.27,10.54
35.62,10.54
35.97,10.55
36.33,10.54
36.70,10.50
37.06,10.45
37.43,10.40
37.81,10.36
38.19,10.32
38.57,10.28
38.95,10.22
39.34,10.15
39.74,10.09
40.14,10.05
40.54,10.02
40.94,9.98
41.35,9.94
41.76,9.89
42.18,9.85
42.60,9.82
43.03,9.79
43.46,9.76
43.90,9.73
44.33,9.70
44.78,9.66
45.23,9.61
45.68,9.54
46.13,9.46
46.60,9.40
47.06,9.34
47.53,9.29
48.01,9.28
48.49,9.32
48.97,9.42
49.46,9.51
49.96,9.51
50.46,9.33
50.96,9.13
51.47,8.92
51.99,8.82
52.51,8.76
53.03,8.73
53.56,8.68
54.10,8.62
54.64,8.55
55.18,8.45
55.74,8.39
56.29,8.33
56.86,8.28
57.42,8.22
58.00,8.14
58.58,8.12
59.16,8.09
59.76,8.07
60.35,8.02
60.96,7.96
61.57,7.91
62.18,7.87
62.80,7.81
63.43,7.74
64.07,7.67
64.71,7.59
65.35,7.53
66.01,7.46
66.67,7.40
67.33,7.35
68.01,7.30
68.69,7.25
69.37,7.18
70.07,7.11
70.77,7.03
71.48,6.96
72.19,6.91
72.91,6.88
73.64,6.81
74.38,6.73
75.12,6.64
75.87,6.59
76.63,6.54
77.40,6.48
78.17,6.41
78.95,6.34
79.74,6.27
80.54,6.21
81.35,6.15
82.16,6.10
82.98,6.05
83.81,5.99
84.65,5.93
85.50,5.86
86.35,5.79
87.22,5.73
88.09,5.68
88.97,5.66
89.86,5.65
90.76,5.55
91.66,5.45
92.58,5.35
93.51,5.30
94.44,5.24
95.39,5.18
96.34,5.11
97.30,5.05
98.28,4.99
99.26,4.92
100.25,4.84
101.25,4.79
102.27,4.73
103.29,4.68
104.32,4.61
105.37,4.55
106.42,4.48
107.48,4.43
108.56,4.36
109.64,4.30
110.74,4.25
111.85,4.19
112.97,4.13
114.10,4.06
115.24,4.00
116.39,3.93
117.55,3.87
118.73,3.82
119.92,3.76
121.12,3.71
122.33,3.64
123.55,3.58
124.79,3.51
126.03,3.45
127.29,3.39
128.57,3.34
129.85,3.28
131.15,3.22
132.46,3.16
133.79,3.09
135.12,3.03
136.48,2.97
137.84,2.91
139.22,2.85
140.61,2.79
142.02,2.73
143.44,2.68
144.87,2.62
146.32,2.56
147.78,2.50
149.26,2.44
150.75,2.38
152.26,2.32
153.78,2.25
155.32,2.19
156.88,2.13
158.44,2.06
160.03,2.00
161.63,1.94
163.24,1.89
164.88,1.84
166.53,1.79
168.19,1.76
169.87,1.75
171.57,1.75
173.29,1.76
175.02,1.79
176.77,1.84
178.54,1.87
180.32,1.88
182.13,1.86
183.95,1.83
185.79,1.79
187.65,1.75
189.52,1.70
191.42,1.65
193.33,1.60
195.27,1.55
197.22,1.50
199.19,1.45
201.18,1.41
203.19,1.36
205.23,1.31
207.28,1.26
209.35,1.21
211.44,1.17
213.56,1.13
215.69,1.09
217.85,1.04
220.03,1.01
222.23,0.97
224.45,0.93
226.70,0.89
228.96,0.86
231.25,0.82
233.57,0.79
235.90,0.75
238.26,0.71
240.64,0.68
243.05,0.65
245.48,0.61
247.93,0.58
250.41,0.55
252.92,0.51
255.45,0.48
258.00,0.45
260.58,0.42
263.19,0.39
265.82,0.36
268.48,0.33
271.16,0.30
273.87,0.27
276.61,0.24
279.38,0.22
282.17,0.19
284.99,0.17
287.84,0.14
290.72,0.11
293.63,0.08
296.57,0.06
299.53,0.04
302.53,0.01
305.55,-0.01
308.61,-0.04
311.69,-0.06
314.81,-0.09
317.96,-0.11
321.14,-0.14
324.35,-0.16
327.59,-0.17
330.87,-0.19
334.18,-0.20
337.52,-0.21
340.90,-0.21
344.30,-0.21
347.75,-0.21
351.23,-0.22
354.74,-0.23
358.28,-0.25
361.87,-0.26
365.49,-0.28
369.14,-0.29
372.83,-0.31
376.56,-0.33
380.33,-0.35
384.13,-0.36
387.97,-0.38
391.85,-0.39
395.77,-0.41
399.73,-0.42
403.72,-0.44
407.76,-0.46
411.84,-0.47
415.96,-0.48
420.12,-0.50
424.32,-0.51
428.56,-0.52
432.85,-0.53
437.18,-0.55
441.55,-0.56
445.96,-0.57
450.42,-0.58
454.93,-0.59
459.48,-0.61
464.07,-0.62
468.71,-0.63
473.40,-0.64
478.13,-0.65
482.91,-0.66
487.74,-0.67
492.62,-0.68
497.55,-0.69
502.52,-0.71
507.55,-0.72
512.62,-0.72
517.75,-0.73
522.93,-0.74
528.16,-0.75
533.44,-0.76
538.77,-0.77
544.16,-0.77
549.60,-0.78
555.10,-0.78
560.65,-0.79
566.25,-0.79
571.92,-0.79
577.64,-0.79
583.41,-0.79
589.25,-0.80
595.14,-0.80
601.09,-0.80
607.10,-0.80
613.17,-0.81
619.30,-0.81
625.50,-0.81
631.75,-0.82
638.07,-0.82
644.45,-0.82
650.89,-0.82
657.40,-0.82
663.98,-0.82
670.62,-0.83
677.32,-0.83
684.10,-0.83
690.94,-0.83
697.85,-0.83
704.83,-0.83
711.87,-0.83
718.99,-0.83
726.18,-0.83
733.44,-0.83
740.78,-0.82
748.19,-0.82
755.67,-0.81
763.23,-0.81
770.86,-0.80
778.57,-0.80
786.35,-0.79
794.22,-0.78
802.16,-0.77
810.18,-0.76
818.28,-0.74
826.46,-0.73
834.73,-0.71
843.08,-0.70
851.51,-0.68
860.02,-0.65
868.62,-0.63
877.31,-0.61
886.08,-0.58
894.94,-0.55
903.89,-0.51
912.93,-0.48
922.06,-0.44
931.28,-0.40
940.59,-0.35
950.00,-0.30
959.50,-0.25
969.09,-0.20
978.78,-0.14
988.57,-0.08
998.46,-0.01
1008.44,0.06
1018.53,0.13
1028.71,0.21
1039.00,0.29
1049.39,0.38
1059.88,0.47
1070.48,0.56
1081.19,0.66
1092.00,0.76
1102.92,0.87
1113.95,0.98
1125.09,1.09
1136.34,1.20
1147.70,1.32
1159.18,1.43
1170.77,1.55
1182.48,1.66
1194.30,1.77
1206.25,1.88
1218.31,1.99
1230.49,2.09
1242.80,2.19
1255.22,2.29
1267.78,2.39
1280.45,2.48
1293.26,2.56
1306.19,2.65
1319.25,2.73
1332.45,2.80
1345.77,2.88
1359.23,2.95
1372.82,3.02
1386.55,3.09
1400.41,3.15
1414.42,3.21
1428.56,3.27
1442.85,3.34
1457.28,3.40
1471.85,3.45
1486.57,3.51
1501.43,3.56
1516.45,3.62
1531.61,3.67
1546.93,3.73
1562.40,3.78
1578.02,3.84
1593.80,3.89
1609.74,3.94
1625.84,4.00
1642.10,4.05
1658.52,4.11
1675.10,4.17
1691.85,4.23
1708.77,4.29
1725.86,4.35
1743.12,4.41
1760.55,4.47
1778.15,4.53
1795.94,4.59
1813.90,4.66
1832.03,4.72
1850.36,4.79
1868.86,4.86
1887.55,4.92
1906.42,4.99
1925.49,5.06
1944.74,5.13
1964.19,5.21
1983.83,5.28
2003.67,5.35
2023.71,5.43
2043.94,5.50
2064.38,5.57
2085.03,5.65
2105.88,5.72
2126.94,5.79
2148.20,5.87
2169.69,5.94
2191.38,6.02
2213.30,6.09
2235.43,6.15
2257.78,6.22
2280.36,6.28
2303.17,6.35
2326.20,6.40
2349.46,6.46
2372.95,6.51
2396.68,6.56
2420.65,6.61
2444.86,6.66
2469.31,6.70
2494.00,6.73
2518.94,6.76
2544.13,6.78
2569.57,6.80
2595.27,6.82
2621.22,6.83
2647.43,6.83
2673.90,6.83
2700.64,6.83
2727.65,6.83
2754.93,6.82
2782.48,6.80
2810.30,6.79
2838.40,6.77
2866.79,6.74
2895.46,6.71
2924.41,6.68
2953.65,6.65
2983.19,6.62
3013.02,6.58
3043.15,6.54
3073.58,6.50
3104.32,6.46
3135.36,6.42
3166.72,6.38
3198.38,6.33
3230.37,6.29
3262.67,6.24
3295.30,6.20
3328.25,6.17
3361.53,6.13
3395.15,6.09
3429.10,6.05
3463.39,6.01
3498.03,5.97
3533.01,5.94
3568.34,5.90
3604.02,5.86
3640.06,5.82
3676.46,5.77
3713.22,5.73
3750.36,5.67
3787.86,5.60
3825.74,5.53
3864.00,5.44
3902.64,5.33
3941.66,5.20
3981.08,5.04
4020.89,4.85
4061.10,4.64
4101.71,4.39
4142.73,4.14
4184.15,3.91
4226.00,3.75
4268.26,3.64
4310.94,3.61
4354.05,3.69
4397.59,3.80
4441.56,3.93
4485.98,4.05
4530.84,4.16
4576.15,4.23
4621.91,4.28
4668.13,4.28
4714.81,4.25
4761.96,4.20
4809.58,4.12
4857.67,4.02
4906.25,3.91
4955.31,3.79
5004.87,3.68
5054.91,3.57
5105.46,3.47
5156.52,3.37
5208.08,3.29
5260.16,3.23
5312.77,3.17
5365.89,3.12
5419.55,3.09
5473.75,3.05
5528.49,3.01
5583.77,2.95
5639.61,2.87
5696.00,2.78
5752.96,2.66
5810.49,2.55
5868.60,2.41
5927.28,2.27
5986.56,2.14
6046.42,2.00
6106.89,1.88
6167.96,1.77
6229.64,1.67
6291.93,1.59
6354.85,1.53
6418.40,1.48
6482.58,1.45
6547.41,1.46
6612.88,1.48
6679.01,1.54
6745.80,1.63
6813.26,1.74
6881.39,1.91
6950.21,2.11
7019.71,2.34
7089.91,2.63
7160.81,2.97
7232.41,3.34
7304.74,3.74
7377.79,4.16
7451.56,4.55
7526.08,4.94
7601.34,5.33
7677.35,5.77
7754.13,6.22
7831.67,6.59
7909.98,6.86
7989.08,6.98
8068.98,6.89
8149.67,6.68
8231.16,6.32
8313.47,5.83
8396.61,5.28
8480.57,4.70
8565.38,4.12
8651.03,3.57
8737.54,3.05
8824.92,2.57
8913.17,2.12
9002.30,1.68
9092.32,1.39
9183.25,1.09
9275.08,0.77
9367.83,0.43
9461.51,0.15
9556.12,-0.06
9651.68,-0.24
9748.20,-0.48
9845.68,-0.84
9944.14,-1.25
10043.58,-1.74
10144.02,-2.28
10245.46,-2.89
10347.91,-3.53
10451.39,-4.18
10555.91,-4.82
10661.46,-5.43
10768.08,-5.99
10875.76,-6.47
10984.52,-6.84
11094.36,-7.14
11205.31,-7.34
11317.36,-7.39
11430.53,-7.40
11544.84,-7.30
11660.29,-7.13
11776.89,-6.92
11894.66,-6.65
12013.60,-6.37
12133.74,-6.10
12255.08,-5.82
12377.63,-5.54
12501.41,-5.26
12626.42,-4.99
12752.68,-4.72
12880.21,-4.45
13009.01,-4.17
13139.10,-3.89
13270.49,-3.59
13403.20,-3.29
13537.23,-2.91
13672.60,-2.48
13809.33,-2.00
13947.42,-1.41
14086.90,-0.73
14227.77,-0.01
14370.04,0.79
14513.74,1.64
14658.88,2.43
14805.47,3.07
14953.52,3.43
15103.06,3.30
15254.09,2.93
15406.63,2.04
15560.70,1.14
15716.30,0.23
15873.47,-0.44
16032.20,-1.00
16192.52,-1.43
16354.45,-2.03
16517.99,-2.77
16683.17,-3.84
16850.01,-4.84
17018.51,-5.72
17188.69,-6.11
17360.58,-6.18
17534.18,-6.01
17709.53,-5.59
17886.62,-5.11
18065.49,-4.70
18246.14,-4.43
18428.60,-4.70
18612.89,-5.44
18799.02,-6.64
18987.01,-8.25
19176.88,-9.66
19368.65,-10.72
19562.33,-11.70
19757.96,-12.99
19955.54,-14.27
