frequency,raw
20.00,11.07
20.20,11.10
20.40,11.13
20.61,11.15
20.81,11.18
21.02,11.20
21.23,11.21
21.44,11.19
21.66,11.16
21.87,11.12
22.09,11.08
22.31,11.06
22.54,11.07
22.76,11.10
22.99,11.16
23.22,11.20
23.45,11.19
23.69,11.11
23.92,10.95
24.16,10.71
24.40,10.42
24.65,10.10
24.89,9.89
25.14,9.85
25.39,9.91
25.65,10.17
25.91,10.43
26.16,10.69
26.43,10.86
26.69,10.95
26.96,11.01
27.23,11.06
27.50,11.16
27.77,11.33
28.05,11.54
28.33,11.75
28.62,11.88
28.90,11.89
29.19,11.73
29.48,11.50
29.78,11.23
30.08,11.01
30.38,10.90
30.68,10.87
30.99,10.86
31.30,10.84
31.61,10.79
31.93,10.71
32.24,10.67
32.57,10.65
32.89,10.67
33.22,10.68
33.55,10.68
33.89,10.64
34.23,10.60
34.57,10.57
34.92,10.59
35.27,10.64
35.62,10.68
35.97,10.68
36.33,10.62
36.70,10.55
37.06,10.48
37.43,10.44
37.81,10.42
38.19,10.41
38.57,10.36
38.95,10.31
39.34,10.25
39.74,10.22
40.14,10.20
40.54,10.20
40.94,10.19
41.35,10.17
41.76,10.13
42.18,10.10
42.60,10.07
43.03,10.07
43.46,10.10
43.90,10.12
44.33,10.13
44.78,10.07
45.23,9.99
45.68,9.89
46.13,9.81
46.60,9.80
47.06,9.82
47.53,9.85
48.01,9.84
48.49,9.85
48.97,9.89
49.46,9.95
49.96,9.94
50.46,9.76
50.96,9.57
51.47,9.38
51.99,9.36
52.51,9.38
53.03,9.39
53.56,9.33
54.10,9.27
54.64,9.22
55.18,9.20
55.74,9.19
56.29,9.19
56.86,9.19
57.42,9.16
58.00,9.11
58.58,9.05
59.16,9.00
59.76,8.97
60.35,8.95
60.96,8.92
61.57,8.89
62.18,8.85
62.80,8.78
63.43,8.72
64.07,8.67
64.71,8.65
65.35,8.63
66.01,8.61
66.67,8.55
67.33,8.50
68.01,8.45
68.69,8.41
69.37,8.35
70.07,8.29
70.77,8.22
71.48,8.18
72.19,8.16
72.91,8.15
73.64,8.09
74.38,8.01
75.12,7.93
75.87,7.86
76.63,7.82
77.40,7.80
78.17,7.77
78.95,7.73
79.74,7.68
80.54,7.63
81.35,7.57
82.16,7.51
82.98,7.46
83.81,7.41
84.65,7.35
85.50,7.29
86.35,7.23
87.22,7.18
88.09,7.11
88.97,7.01
89.86,6.88
90.76,6.86
91.66,6.87
92.58,6.86
93.51,6.81
94.44,6.76
95.39,6.71
96.34,6.67
97.30,6.61
98.28,6.54
99.26,6.48
100.25,6.43
101.25,6.38
102.27,6.33
103.29,6.26
104.32,6.19
105.37,6.14
106.42,6.09
107.48,6.03
108.56,5.98
109.64,5.92
110.74,5.87
111.85,5.81
112.97,5.76
114.10,5.71
115.24,5.66
116.39,5.60
117.55,5.55
118.73,5.56
119.92,5.57
121.12,5.49
122.33,5.32
123.55,5.25
124.79,5.19
126.03,5.13
127.29,5.08
128.57,5.02
129.85,4.96
131.15,4.89
132.46,4.83
133.79,4.77
135.12,4.70
136.48,4.64
137.84,4.59
139.22,4.53
140.61,4.47
142.02,4.40
143.44,4.34
144.87,4.28
146.32,4.22
147.78,4.17
149.26,4.08
150.75,4.01
152.26,3.94
153.78,3.87
155.32,3.81
156.88,3.75
158.44,3.70
160.03,3.65
161.63,3.62
163.24,3.58
164.88,3.53
166.53,3.49
168.19,3.45
169.87,3.42
171.57,3.38
173.29,3.34
175.02,3.29
176.77,3.26
178.54,3.23
180.32,3.20
182.13,3.15
183.95,3.11
185.79,3.06
187.65,3.03
189.52,2.99
191.42,2.95
193.33,2.93
195.27,2.91
197.22,2.87
199.19,2.85
201.18,2.81
203.19,2.75
205.23,2.72
207.28,2.68
209.35,2.64
211.44,2.58
213.56,2.54
215.69,2.49
217.85,2.44
220.03,2.39
222.23,2.34
224.45,2.29
226.70,2.24
228.96,2.19
231.25,2.14
233.57,2.09
235.90,2.05
238.26,2.00
240.64,1.95
243.05,1.91
245.48,1.86
247.93,1.81
250.41,1.76
252.92,1.72
255.45,1.68
258.00,1.64
260.58,1.59
263.19,1.54
265.82,1.50
268.48,1.46
271.16,1.41
273.87,1.37
276.61,1.32
279.38,1.28
282.17,1.24
284.99,1.20
287.84,1.16
290.72,1.12
293.63,1.08
296.57,1.04
299.53,1.00
302.53,0.96
305.55,0.91
308.61,0.87
311.69,0.83
314.81,0.81
317.96,0.77
321.14,0.74
324.35,0.70
327.59,0.67
330.87,0.64
334.18,0.62
337.52,0.58
340.90,0.54
344.30,0.51
347.75,0.48
351.23,0.45
354.74,0.42
358.28,0.38
361.87,0.34
365.49,0.31
369.14,0.28
372.83,0.25
376.56,0.22
380.33,0.19
384.13,0.16
387.97,0.13
391.85,0.10
395.77,0.07
399.73,0.04
403.72,0.02
407.76,-0.01
411.84,-0.04
415.96,-0.07
420.12,-0.10
424.32,-0.12
428.56,-0.15
432.85,-0.18
437.18,-0.20
441.55,-0.23
445.96,-0.25
450.42,-0.28
454.93,-0.30
459.48,-0.33
464.07,-0.35
468.71,-0.37
473.40,-0.39
478.13,-0.42
482.91,-0.44
487.74,-0.46
492.62,-0.48
497.55,-0.51
502.52,-0.52
507.55,-0.54
512.62,-0.56
517.75,-0.58
522.93,-0.60
528.16,-0.62
533.44,-0.64
538.77,-0.66
544.16,-0.67
549.60,-0.69
555.10,-0.71
560.65,-0.72
566.25,-0.74
571.92,-0.76
577.64,-0.77
583.41,-0.78
589.25,-0.80
595.14,-0.81
601.09,-0.82
607.10,-0.84
613.17,-0.85
619.30,-0.86
625.50,-0.88
631.75,-0.89
638.07,-0.90
644.45,-0.91
650.89,-0.92
657.40,-0.92
663.98,-0.93
670.62,-0.94
677.32,-0.95
684.10,-0.95
690.94,-0.96
697.85,-0.96
704.83,-0.97
711.87,-0.97
718.99,-0.97
726.18,-0.97
733.44,-0.97
740.78,-0.96
748.19,-0.96
755.67,-0.96
763.23,-0.95
770.86,-0.94
778.57,-0.93
786.35,-0.92
794.22,-0.91
802.16,-0.90
810.18,-0.88
818.28,-0.87
826.46,-0.85
834.73,-0.83
843.08,-0.81
851.51,-0.78
860.02,-0.75
868.62,-0.73
877.31,-0.70
886.08,-0.66
894.94,-0.62
903.89,-0.58
912.93,-0.55
922.06,-0.50
931.28,-0.45
940.59,-0.40
950.00,-0.34
959.50,-0.28
969.09,-0.22
978.78,-0.15
988.57,-0.09
998.46,-0.01
1008.44,0.07
1018.53,0.15
1028.71,0.23
1039.00,0.32
1049.39,0.41
1059.88,0.51
1070.48,0.61
1081.19,0.70
1092.00,0.80
1102.92,0.91
1113.95,1.01
1125.09,1.12
1136.34,1.23
1147.70,1.33
1159.18,1.44
1170.77,1.55
1182.48,1.65
1194.30,1.76
1206.25,1.87
1218.31,1.97
1230.49,2.07
1242.80,2.17
1255.22,2.27
1267.78,2.37
1280.45,2.47
1293.26,2.56
1306.19,2.66
1319.25,2.75
1332.45,2.84
1345.77,2.93
1359.23,3.02
1372.82,3.10
1386.55,3.19
1400.41,3.28
1414.42,3.36
1428.56,3.44
1442.85,3.52
1457.28,3.60
1471.85,3.69
1486.57,3.77
1501.43,3.85
1516.45,3.93
1531.61,4.01
1546.93,4.09
1562.40,4.17
1578.02,4.25
1593.80,4.33
1609.74,4.41
1625.84,4.49
1642.10,4.57
1658.52,4.66
1675.10,4.74
1691.85,4.82
1708.77,4.91
1725.86,4.99
1743.12,5.07
1760.55,5.16
1778.15,5.25
1795.94,5.34
1813.90,5.44
1832.03,5.54
1850.36,5.63
1868.86,5.74
1887.55,5.83
1906.42,5.93
1925.49,6.02
1944.74,6.12
1964.19,6.21
1983.83,6.30
2003.67,6.39
2023.71,6.48
2043.94,6.57
2064.38,6.65
2085.03,6.74
2105.88,6.83
2126.94,6.91
2148.20,7.00
2169.69,7.08
2191.38,7.17
2213.30,7.25
2235.43,7.33
2257.78,7.40
2280.36,7.48
2303.17,7.55
2326.20,7.61
2349.46,7.67
2372.95,7.73
2396.68,7.79
2420.65,7.84
2444.86,7.89
2469.31,7.93
2494.00,7.96
2518.94,8.00
2544.13,8.02
2569.57,8.05
2595.27,8.07
2621.22,8.09
2647.43,8.10
2673.90,8.11
2700.64,8.12
2727.65,8.13
2754.93,8.14
2782.48,8.14
2810.30,8.14
2838.40,8.13
2866.79,8.12
2895.46,8.11
2924.41,8.09
2953.65,8.07
2983.19,8.06
3013.02,8.04
3043.15,8.03
3073.58,8.01
3104.32,8.01
3135.36,8.00
3166.72,7.98
3198.38,7.96
3230.37,7.94
3262.67,7.91
3295.30,7.88
3328.25,7.85
3361.53,7.82
3395.15,7.78
3429.10,7.75
3463.39,7.72
3498.03,7.69
3533.01,7.67
3568.34,7.65
3604.02,7.63
3640.06,7.62
3676.46,7.60
3713.22,7.59
3750.36,7.56
3787.86,7.54
3825.74,7.52
3864.00,7.50
3902.64,7.48
3941.66,7.46
3981.08,7.44
4020.89,7.42
4061.10,7.40
4101.71,7.37
4142.73,7.35
4184.15,7.32
4226.00,7.29
4268.26,7.26
4310.94,7.23
4354.05,7.19
4397.59,7.14
4441.56,7.10
4485.98,7.04
4530.84,6.98
4576.15,6.90
4621.91,6.83
4668.13,6.74
4714.81,6.65
4761.96,6.56
4809.58,6.45
4857.67,6.34
4906.25,6.22
4955.31,6.09
5004.87,5.97
5054.91,5.83
5105.46,5.70
5156.52,5.55
5208.08,5.41
5260.16,5.26
5312.77,5.11
5365.89,4.96
5419.55,4.80
5473.75,4.65
5528.49,4.50
5583.77,4.35
5639.61,4.20
5696.00,4.06
5752.96,3.92
5810.49,3.79
5868.60,3.66
5927.28,3.54
5986.56,3.43
6046.42,3.33
6106.89,3.24
6167.96,3.16
6229.64,3.08
6291.93,3.02
6354.85,2.97
6418.40,2.93
6482.58,2.89
6547.41,2.87
6612.88,2.85
6679.01,2.85
6745.80,2.85
6813.26,2.87
6881.39,2.90
6950.21,2.96
7019.71,3.04
7089.91,3.16
7160.81,3.33
7232.41,3.53
7304.74,3.78
7377.79,4.07
7451.56,4.40
7526.08,4.78
7601.34,5.20
7677.35,5.69
7754.13,6.20
7831.67,6.78
7909.98,7.35
7989.08,7.91
8068.98,8.37
8149.67,8.69
8231.16,8.83
8313.47,8.65
8396.61,8.31
8480.57,7.71
8565.38,6.95
8651.03,6.11
8737.54,5.23
8824.92,4.35
8913.17,3.50
9002.30,2.67
9092.32,1.90
9183.25,1.19
9275.08,0.51
9367.83,-0.11
9461.51,-0.68
9556.12,-1.21
9651.68,-1.70
9748.20,-2.16
9845.68,-2.57
9944.14,-2.94
10043.58,-3.28
10144.02,-3.60
10245.46,-3.87
10347.91,-4.11
10451.39,-4.31
10555.91,-4.43
10661.46,-4.47
10768.08,-4.42
10875.76,-4.19
10984.52,-3.73
11094.36,-3.15
11205.31,-2.41
11317.36,-1.60
11430.53,-0.81
11544.84,-0.08
11660.29,0.60
11776.89,1.25
11894.66,1.84
12013.60,2.41
12133.74,2.95
12255.08,3.41
12377.63,3.80
12501.41,4.06
12626.42,4.07
12752.68,3.86
12880.21,3.38
13009.01,2.78
13139.10,2.18
13270.49,1.48
13403.20,0.76
13537.23,0.10
13672.60,-0.52
13809.33,-1.10
13947.42,-1.60
14086.90,-2.02
14227.77,-2.41
14370.04,-2.73
14513.74,-2.97
14658.88,-3.11
14805.47,-3.21
14953.52,-3.24
15103.06,-3.22
15254.09,-3.18
15406.63,-3.12
15560.70,-3.11
15716.30,-3.15
15873.47,-3.38
16032.20,-3.73
16192.52,-4.35
16354.45,-5.17
16517.99,-6.11
16683.17,-7.16
16850.01,-8.19
17018.51,-9.18
17188.69,-10.12
17360.58,-11.05
17534.18,-11.96
17709.53,-12.80
17886.62,-13.52
18065.49,-14.14
18246.14,-14.61
18428.60,-14.82
18612.89,-14.88
18799.02,-14.82
18987.01,-14.71
19176.88,-14.74
19368.65,-15.00
19562.33,-15.55
19757.96,-16.41
19955.54,-17.28
