frequency,raw,smoothed,error,error_smoothed,equalization,parametric_eq,fixed_band_eq,equalized_raw,equalized_smoothed,target
20.00,6.23,6.23,3.19,3.19,-3.19,-3.88,-1.72,3.03,3.03,3.04
20.20,6.25,6.25,3.18,3.18,-3.18,-3.88,-1.77,3.07,3.07,3.07
20.40,6.27,6.27,3.17,3.17,-3.16,-3.88,-1.82,3.10,3.10,3.10
20.61,6.29,6.29,3.17,3.16,-3.16,-3.88,-1.88,3.13,3.13,3.12
20.81,6.31,6.30,3.16,3.15,-3.15,-3.88,-1.93,3.16,3.15,3.15
21.02,6.32,6.32,3.14,3.15,-3.15,-3.88,-1.99,3.17,3.17,3.18
21.23,6.34,6.34,3.15,3.15,-3.15,-3.88,-2.04,3.19,3.19,3.19
21.44,6.36,6.35,3.16,3.15,-3.16,-3.88,-2.10,3.20,3.20,3.20
21.66,6.37,6.37,3.16,3.17,-3.16,-3.88,-2.16,3.20,3.21,3.21
21.87,6.39,6.39,3.18,3.18,-3.18,-3.88,-2.23,3.21,3.21,3.21
22.09,6.41,6.41,3.19,3.19,-3.19,-3.88,-2.29,3.21,3.21,3.22
22.31,6.43,6.43,3.21,3.21,-3.22,-3.89,-2.36,3.21,3.21,3.22
22.54,6.46,6.45,3.24,3.24,-3.24,-3.89,-2.43,3.22,3.21,3.21
22.76,6.48,6.48,3.26,3.27,-3.27,-3.89,-2.50,3.21,3.21,3.21
22.99,6.50,6.50,3.29,3.29,-3.29,-3.89,-2.57,3.20,3.21,3.20
23.22,6.53,6.53,3.32,3.32,-3.32,-3.89,-2.64,3.21,3.20,3.20
23.45,6.56,6.55,3.36,3.35,-3.35,-3.89,-2.72,3.21,3.21,3.20
23.69,6.58,6.58,3.38,3.38,-3.37,-3.89,-2.79,3.20,3.21,3.20
23.92,6.61,6.61,3.41,3.40,-3.40,-3.89,-2.87,3.21,3.21,3.20
24.16,6.63,6.63,3.42,3.42,-3.42,-3.89,-2.95,3.21,3.21,3.21
24.40,6.65,6.64,3.44,3.44,-3.44,-3.90,-3.03,3.21,3.20,3.21
24.65,6.66,6.66,3.46,3.46,-3.46,-3.90,-3.11,3.19,3.20,3.20
24.89,6.68,6.68,3.48,3.48,-3.48,-3.90,-3.20,3.19,3.20,3.20
25.14,6.70,6.70,3.50,3.50,-3.50,-3.90,-3.28,3.19,3.19,3.20
25.39,6.72,6.71,3.52,3.52,-3.52,-3.90,-3.36,3.20,3.19,3.19
25.65,6.73,6.73,3.53,3.54,-3.54,-3.90,-3.45,3.19,3.19,3.19
25.91,6.75,6.75,3.56,3.56,-3.56,-3.90,-3.53,3.19,3.19,3.18
26.16,6.77,6.76,3.59,3.58,-3.58,-3.91,-3.62,3.19,3.19,3.18
26.43,6.78,6.78,3.60,3.60,-3.59,-3.91,-3.70,3.18,3.19,3.18
26.69,6.79,6.79,3.61,3.61,-3.61,-3.91,-3.78,3.18,3.18,3.18
26.96,6.80,6.80,3.62,3.62,-3.62,-3.91,-3.86,3.18,3.18,3.18
27.23,6.81,6.81,3.63,3.63,-3.63,-3.91,-3.94,3.17,3.17,3.18
27.50,6.82,6.82,3.64,3.64,-3.65,-3.91,-4.02,3.17,3.17,3.18
27.77,6.83,6.82,3.66,3.66,-3.66,-3.92,-4.10,3.17,3.16,3.16
28.05,6.83,6.83,3.66,3.67,-3.67,-3.92,-4.17,3.15,3.16,3.16
28.33,6.84,6.84,3.69,3.69,-3.69,-3.92,-4.24,3.15,3.15,3.15
28.62,6.86,6.85,3.71,3.70,-3.70,-3.92,-4.31,3.15,3.15,3.15
28.90,6.87,6.87,3.72,3.72,-3.72,-3.92,-4.37,3.15,3.15,3.15
29.19,6.88,6.88,3.74,3.73,-3.73,-3.93,-4.42,3.15,3.15,3.14
29.48,6.89,6.88,3.74,3.75,-3.74,-3.93,-4.47,3.14,3.14,3.14
29.78,6.89,6.89,3.75,3.76,-3.76,-3.93,-4.52,3.13,3.13,3.13
30.08,6.90,6.89,3.77,3.76,-3.77,-3.93,-4.56,3.13,3.13,3.13
30.38,6.90,6.90,3.78,3.78,-3.78,-3.94,-4.60,3.12,3.12,3.12
30.68,6.91,6.91,3.79,3.79,-3.80,-3.94,-4.62,3.11,3.11,3.12
30.99,6.92,6.92,3.81,3.81,-3.81,-3.94,-4.65,3.10,3.10,3.10
31.30,6.93,6.93,3.82,3.83,-3.83,-3.94,-4.66,3.10,3.10,3.10
31.61,6.95,6.94,3.85,3.85,-3.85,-3.95,-4.67,3.10,3.10,3.10
31.93,6.96,6.96,3.87,3.87,-3.87,-3.95,-4.67,3.09,3.09,3.09
32.24,6.97,6.97,3.89,3.89,-3.88,-3.95,-4.67,3.08,3.09,3.08
32.57,6.98,6.98,3.90,3.91,-3.90,-3.96,-4.66,3.08,3.08,3.07
32.89,6.99,6.98,3.92,3.92,-3.91,-3.96,-4.65,3.07,3.07,3.07
33.22,6.99,6.99,3.93,3.93,-3.93,-3.96,-4.63,3.06,3.06,3.06
33.55,6.99,6.99,3.93,3.94,-3.94,-3.97,-4.60,3.04,3.05,3.05
33.89,7.00,7.00,3.95,3.95,-3.96,-3.97,-4.57,3.04,3.04,3.04
34.23,7.01,7.00,3.97,3.97,-3.97,-3.97,-4.54,3.04,3.04,3.04
34.57,7.01,7.01,3.98,3.98,-3.98,-3.98,-4.50,3.03,3.03,3.03
34.92,7.02,7.01,4.00,4.00,-3.99,-3.98,-4.46,3.02,3.02,3.01
35.27,7.02,7.02,4.01,4.01,-4.01,-3.99,-4.41,3.01,3.01,3.01
35.62,7.02,7.02,4.02,4.02,-4.02,-3.99,-4.37,2.99,2.99,3.00
35.97,7.02,7.02,4.03,4.03,-4.04,-4.00,-4.32,2.98,2.98,2.98
36.33,7.03,7.02,4.05,4.05,-4.05,-4.00,-4.27,2.98,2.97,2.98
36.70,7.03,7.03,4.06,4.07,-4.06,-4.01,-4.22,2.96,2.97,2.96
37.06,7.04,7.03,4.09,4.08,-4.08,-4.01,-4.17,2.96,2.96,2.95
37.43,7.04,7.04,4.09,4.09,-4.09,-4.02,-4.11,2.95,2.95,2.95
37.81,7.04,7.04,4.10,4.11,-4.10,-4.02,-4.06,2.93,2.93,2.93
38.19,7.04,7.04,4.12,4.12,-4.12,-4.03,-4.01,2.92,2.92,2.92
38.57,7.04,7.04,4.12,4.13,-4.13,-4.04,-3.96,2.91,2.91,2.91
38.95,7.04,7.04,4.14,4.14,-4.14,-4.04,-3.91,2.89,2.89,2.90
39.34,7.04,7.04,4.15,4.15,-4.15,-4.05,-3.86,2.88,2.88,2.88
39.74,7.04,7.04,4.17,4.17,-4.16,-4.06,-3.82,2.87,2.87,2.87
40.14,7.04,7.04,4.17,4.18,-4.17,-4.06,-3.77,2.86,2.86,2.86
40.54,7.04,7.03,4.19,4.18,-4.18,-4.07,-3.73,2.85,2.85,2.85
40.94,7.03,7.03,4.19,4.19,-4.19,-4.08,-3.68,2.83,2.84,2.84
41.35,7.03,7.03,4.20,4.20,-4.20,-4.09,-3.65,2.83,2.83,2.82
41.76,7.03,7.03,4.21,4.21,-4.21,-4.10,-3.61,2.82,2.82,2.82
42.18,7.03,7.03,4.21,4.22,-4.22,-4.11,-3.57,2.81,2.81,2.81
42.60,7.03,7.03,4.23,4.23,-4.23,-4.12,-3.54,2.80,2.80,2.80
43.03,7.03,7.02,4.24,4.24,-4.24,-4.13,-3.51,2.79,2.79,2.79
43.46,7.02,7.02,4.25,4.25,-4.25,-4.14,-3.49,2.77,2.77,2.77
43.90,7.01,7.01,4.26,4.26,-4.26,-4.15,-3.46,2.74,2.74,2.74
44.33,7.00,7.00,4.27,4.27,-4.28,-4.16,-3.44,2.72,2.72,2.73
44.78,7.00,7.00,4.29,4.29,-4.29,-4.17,-3.42,2.71,2.71,2.71
45.23,7.00,7.00,4.31,4.31,-4.30,-4.18,-3.40,2.69,2.69,2.69
45.68,7.00,6.99,4.33,4.32,-4.32,-4.20,-3.39,2.68,2.68,2.67
46.13,6.99,6.99,4.33,4.33,-4.33,-4.21,-3.38,2.66,2.66,2.65
46.60,6.98,6.98,4.33,4.34,-4.34,-4.22,-3.37,2.63,2.64,2.64
47.06,6.98,6.98,4.35,4.35,-4.36,-4.24,-3.37,2.62,2.62,2.62
47.53,6.98,6.98,4.37,4.37,-4.37,-4.25,-3.36,2.60,2.60,2.60
48.01,6.98,6.97,4.38,4.39,-4.39,-4.27,-3.36,2.59,2.59,2.59
48.49,6.97,6.97,4.40,4.40,-4.40,-4.28,-3.36,2.56,2.56,2.56
48.97,6.96,6.96,4.43,4.42,-4.42,-4.30,-3.37,2.54,2.54,2.53
49.46,6.94,6.94,4.44,4.44,-4.43,-4.32,-3.37,2.50,2.51,2.50
49.96,6.93,6.92,4.46,4.45,-4.45,-4.33,-3.38,2.48,2.48,2.47
50.46,6.91,6.91,4.45,4.46,-4.46,-4.35,-3.39,2.45,2.45,2.46
50.96,6.90,6.90,4.46,4.47,-4.47,-4.37,-3.40,2.43,2.43,2.43
51.47,6.89,6.88,4.49,4.48,-4.48,-4.38,-3.41,2.41,2.40,2.40
51.99,6.87,6.87,4.49,4.49,-4.49,-4.40,-3.43,2.38,2.38,2.38
52.51,6.86,6.86,4.49,4.50,-4.50,-4.42,-3.44,2.36,2.36,2.36
53.03,6.85,6.85,4.51,4.51,-4.51,-4.43,-3.46,2.34,2.34,2.34
53.56,6.84,6.83,4.52,4.52,-4.52,-4.45,-3.47,2.32,2.31,2.31
54.10,6.82,6.82,4.53,4.53,-4.53,-4.47,-3.49,2.29,2.29,2.29
54.64,6.80,6.80,4.54,4.54,-4.53,-4.48,-3.51,2.26,2.26,2.26
55.18,6.78,6.77,4.54,4.54,-4.54,-4.49,-3.52,2.24,2.24,2.24
55.74,6.75,6.75,4.54,4.54,-4.54,-4.51,-3.54,2.21,2.21,2.21
56.29,6.73,6.72,4.54,4.54,-4.54,-4.52,-3.56,2.19,2.19,2.19
56.86,6.70,6.70,4.53,4.54,-4.53,-4.53,-3.58,2.16,2.16,2.16
57.42,6.67,6.67,4.53,4.53,-4.53,-4.53,-3.59,2.14,2.14,2.13
58.00,6.65,6.64,4.53,4.53,-4.52,-4.54,-3.60,2.13,2.12,2.11
58.58,6.61,6.61,4.51,4.51,-4.51,-4.54,-3.62,2.09,2.09,2.09
59.16,6.57,6.57,4.49,4.50,-4.51,-4.54,-3.63,2.06,2.07,2.07
59.76,6.54,6.54,4.48,4.49,-4.50,-4.54,-3.64,2.04,2.04,2.05
60.35,6.51,6.51,4.49,4.48,-4.49,-4.53,-3.65,2.02,2.02,2.02
60.96,6.48,6.47,4.48,4.48,-4.48,-4.52,-3.65,2.00,1.99,2.00
61.57,6.43,6.43,4.47,4.47,-4.47,-4.50,-3.65,1.96,1.96,1.96
62.18,6.39,6.39,4.46,4.46,-4.46,-4.48,-3.65,1.93,1.93,1.92
62.80,6.34,6.34,4.44,4.44,-4.44,-4.46,-3.65,1.90,1.90,1.90
63.43,6.29,6.29,4.42,4.42,-4.42,-4.43,-3.65,1.87,1.87,1.86
64.07,6.24,6.23,4.40,4.40,-4.40,-4.40,-3.64,1.84,1.84,1.84
64.71,6.18,6.18,4.37,4.37,-4.37,-4.36,-3.64,1.81,1.81,1.81
65.35,6.11,6.11,4.32,4.33,-4.33,-4.32,-3.63,1.77,1.78,1.78
66.01,6.05,6.04,4.29,4.29,-4.30,-4.28,-3.62,1.75,1.75,1.75
66.67,5.98,5.97,4.25,4.25,-4.25,-4.23,-3.60,1.72,1.72,1.73
67.33,5.90,5.90,4.20,4.21,-4.21,-4.18,-3.59,1.69,1.70,1.70
68.01,5.83,5.82,4.16,4.16,-4.15,-4.12,-3.57,1.67,1.67,1.67
68.69,5.74,5.73,4.10,4.10,-4.10,-4.05,-3.55,1.64,1.64,1.63
69.37,5.64,5.64,4.03,4.03,-4.03,-3.99,-3.53,1.60,1.60,1.60
70.07,5.53,5.53,3.96,3.96,-3.97,-3.91,-3.51,1.56,1.57,1.57
70.77,5.43,5.43,3.88,3.88,-3.89,-3.84,-3.50,1.54,1.54,1.55
71.48,5.32,5.32,3.81,3.81,-3.81,-3.76,-3.48,1.51,1.51,1.51
72.19,5.20,5.19,3.72,3.72,-3.71,-3.67,-3.46,1.48,1.48,1.48
72.91,5.06,5.06,3.62,3.62,-3.61,-3.58,-3.44,1.44,1.44,1.44
73.64,4.91,4.91,3.50,3.50,-3.50,-3.48,-3.42,1.41,1.41,1.40
74.38,4.75,4.75,3.37,3.38,-3.38,-3.37,-3.40,1.37,1.37,1.38
75.12,4.59,4.58,3.25,3.24,-3.24,-3.26,-3.38,1.34,1.34,1.34
75.87,4.41,4.41,3.10,3.10,-3.10,-3.14,-3.37,1.31,1.31,1.31
76.63,4.22,4.22,2.94,2.94,-2.94,-3.01,-3.35,1.28,1.28,1.28
77.40,4.02,4.01,2.77,2.77,-2.77,-2.87,-3.34,1.25,1.24,1.25
78.17,3.80,3.80,2.59,2.59,-2.59,-2.72,-3.33,1.21,1.21,1.20
78.95,3.58,3.57,2.39,2.39,-2.40,-2.56,-3.32,1.18,1.18,1.18
79.74,3.34,3.34,2.19,2.19,-2.19,-2.38,-3.31,1.15,1.15,1.15
80.54,3.09,3.09,1.97,1.98,-1.97,-2.18,-3.30,1.12,1.12,1.11
81.35,2.84,2.83,1.76,1.75,-1.74,-1.97,-3.30,1.10,1.09,1.08
82.16,2.56,2.56,1.51,1.51,-1.50,-1.74,-3.30,1.06,1.06,1.04
82.98,2.27,2.27,1.25,1.26,-1.25,-1.49,-3.30,1.02,1.02,1.02
83.81,1.97,1.97,1.00,0.99,-1.00,-1.23,-3.30,0.97,0.97,0.97
84.65,1.67,1.67,0.73,0.73,-0.74,-0.95,-3.31,0.92,0.93,0.93
85.50,1.38,1.38,0.47,0.48,-0.48,-0.68,-3.32,0.89,0.90,0.90
86.35,1.10,1.10,0.23,0.23,-0.23,-0.40,-3.33,0.87,0.87,0.86
87.22,0.83,0.82,0.00,-0.00,0.05,-0.16,-3.34,0.87,0.87,0.83
88.09,0.55,0.55,-0.24,-0.24,0.31,0.06,-3.36,0.85,0.85,0.78
88.97,0.28,0.28,-0.48,-0.47,0.54,0.18,-3.38,0.81,0.81,0.75
89.86,0.02,0.02,-0.69,-0.69,0.72,0.28,-3.40,0.74,0.74,0.71
90.76,-0.21,-0.21,-0.87,-0.88,0.84,0.25,-3.43,0.63,0.63,0.66
91.66,-0.40,-0.40,-1.03,-1.02,0.89,0.19,-3.45,0.49,0.49,0.63
92.58,-0.54,-0.54,-1.12,-1.11,0.88,0.04,-3.48,0.33,0.34,0.57
93.51,-0.60,-0.61,-1.14,-1.15,0.79,-0.14,-3.52,0.19,0.18,0.54
94.44,-0.61,-0.61,-1.11,-1.11,0.64,-0.35,-3.55,0.02,0.02,0.50
95.39,-0.55,-0.56,-1.01,-1.01,0.43,-0.57,-3.59,-0.13,-0.13,0.45
96.34,-0.44,-0.44,-0.84,-0.84,0.17,-0.79,-3.63,-0.27,-0.26,0.40
97.30,-0.26,-0.25,-0.61,-0.60,-0.11,-1.00,-3.67,-0.37,-0.35,0.35
98.28,-0.00,-0.02,-0.31,-0.33,-0.40,-1.19,-3.71,-0.40,-0.42,0.31
99.26,0.26,0.24,-0.00,-0.02,-0.68,-1.38,-3.75,-0.42,-0.44,0.26
100.25,0.50,0.52,0.28,0.30,-0.94,-1.54,-3.80,-0.44,-0.42,0.22
101.25,0.81,0.80,0.64,0.63,-1.20,-1.69,-3.84,-0.39,-0.40,0.17
102.27,1.10,1.10,0.97,0.98,-1.46,-1.82,-3.89,-0.36,-0.36,0.12
103.29,1.40,1.40,1.33,1.32,-1.71,-1.94,-3.94,-0.32,-0.32,0.07
104.32,1.70,1.69,1.67,1.66,-1.97,-2.05,-3.98,-0.28,-0.28,0.03
105.37,1.98,1.98,1.99,2.00,-2.23,-2.15,-4.03,-0.26,-0.25,-0.02
106.42,2.27,2.27,2.33,2.33,-2.49,-2.24,-4.08,-0.23,-0.23,-0.06
107.48,2.55,2.54,2.66,2.66,-2.76,-2.33,-4.12,-0.21,-0.21,-0.11
108.56,2.81,2.80,2.97,2.97,-3.02,-2.41,-4.16,-0.21,-0.21,-0.16
109.64,3.05,3.04,3.26,3.25,-3.28,-2.48,-4.21,-0.23,-0.23,-0.21
110.74,3.26,3.26,3.51,3.52,-3.53,-2.56,-4.24,-0.27,-0.26,-0.26
111.85,3.48,3.47,3.78,3.78,-3.78,-2.63,-4.28,-0.30,-0.30,-0.30
112.97,3.66,3.66,4.02,4.02,-4.01,-2.70,-4.31,-0.36,-0.35,-0.37
114.10,3.84,3.83,4.25,4.24,-4.23,-2.78,-4.33,-0.40,-0.40,-0.41
115.24,3.98,3.98,4.44,4.45,-4.44,-2.85,-4.35,-0.46,-0.46,-0.47
116.39,4.11,4.11,4.63,4.63,-4.63,-2.92,-4.37,-0.52,-0.52,-0.52
117.55,4.23,4.22,4.80,4.79,-4.79,-3.00,-4.38,-0.57,-0.58,-0.58
118.73,4.31,4.31,4.94,4.94,-4.94,-3.08,-4.38,-0.63,-0.63,-0.63
119.92,4.39,4.39,5.06,5.07,-5.06,-3.16,-4.37,-0.68,-0.68,-0.67
121.12,4.45,4.44,5.17,5.17,-5.17,-3.24,-4.36,-0.72,-0.72,-0.73
122.33,4.48,4.48,5.26,5.25,-5.25,-3.32,-4.34,-0.77,-0.77,-0.78
123.55,4.49,4.49,5.31,5.31,-5.31,-3.41,-4.31,-0.82,-0.82,-0.82
124.79,4.48,4.48,5.35,5.35,-5.35,-3.50,-4.27,-0.87,-0.87,-0.87
126.03,4.45,4.45,5.37,5.37,-5.37,-3.59,-4.23,-0.93,-0.93,-0.92
127.29,4.40,4.39,5.37,5.37,-5.37,-3.69,-4.17,-0.98,-0.98,-0.97
128.57,4.32,4.32,5.35,5.35,-5.35,-3.78,-4.11,-1.03,-1.03,-1.03
129.85,4.22,4.23,5.30,5.31,-5.30,-3.88,-4.04,-1.09,-1.08,-1.08
131.15,4.12,4.11,5.24,5.24,-5.23,-3.98,-3.96,-1.12,-1.12,-1.13
132.46,3.99,3.98,5.16,5.15,-5.13,-4.07,-3.87,-1.15,-1.15,-1.18
133.79,3.82,3.82,5.03,5.04,-5.01,-4.16,-3.78,-1.19,-1.19,-1.21
135.12,3.63,3.63,4.89,4.89,-4.86,-4.25,-3.68,-1.23,-1.23,-1.27
136.48,3.42,3.41,4.72,4.71,-4.69,-4.34,-3.57,-1.27,-1.28,-1.30
137.84,3.18,3.17,4.52,4.52,-4.51,-4.41,-3.46,-1.33,-1.34,-1.35
139.22,2.92,2.93,4.32,4.32,-4.32,-4.48,-3.34,-1.41,-1.40,-1.40
140.61,2.69,2.69,4.13,4.13,-4.15,-4.52,-3.21,-1.46,-1.46,-1.44
142.02,2.49,2.48,3.95,3.96,-3.99,-4.57,-3.08,-1.51,-1.51,-1.47
143.44,2.32,2.32,3.82,3.83,-3.87,-4.58,-2.95,-1.55,-1.55,-1.51
144.87,2.18,2.19,3.72,3.73,-3.78,-4.59,-2.81,-1.61,-1.60,-1.55
146.32,2.11,2.10,3.69,3.68,-3.73,-4.56,-2.67,-1.63,-1.63,-1.59
147.78,2.05,2.06,3.66,3.68,-3.71,-4.53,-2.53,-1.67,-1.66,-1.62
149.26,2.05,2.05,3.70,3.70,-3.72,-4.46,-2.38,-1.67,-1.67,-1.65
150.75,2.05,2.05,3.75,3.74,-3.73,-4.38,-2.23,-1.69,-1.68,-1.70
152.26,2.06,2.05,3.79,3.79,-3.75,-4.26,-2.08,-1.69,-1.70,-1.74
153.78,2.03,2.02,3.80,3.80,-3.76,-4.14,-1.93,-1.73,-1.73,-1.77
155.32,1.97,1.97,3.78,3.78,-3.74,-3.98,-1.78,-1.78,-1.78,-1.82
156.88,1.88,1.87,3.73,3.73,-3.70,-3.82,-1.62,-1.83,-1.83,-1.85
158.44,1.75,1.75,3.64,3.65,-3.63,-3.62,-1.47,-1.89,-1.88,-1.89
160.03,1.61,1.60,3.54,3.54,-3.53,-3.42,-1.31,-1.93,-1.93,-1.94
161.63,1.43,1.43,3.40,3.41,-3.40,-3.20,-1.16,-1.98,-1.97,-1.98
163.24,1.24,1.23,3.25,3.25,-3.25,-2.97,-1.00,-2.01,-2.01,-2.02
164.88,1.02,1.02,3.07,3.07,-3.07,-2.73,-0.84,-2.06,-2.06,-2.05
166.53,0.79,0.79,2.87,2.88,-2.89,-2.49,-0.68,-2.10,-2.09,-2.09
168.19,0.56,0.55,2.68,2.68,-2.68,-2.24,-0.53,-2.13,-2.13,-2.13
169.87,0.31,0.30,2.47,2.47,-2.47,-1.98,-0.37,-2.17,-2.17,-2.16
171.57,0.04,0.04,2.24,2.24,-2.25,-1.73,-0.21,-2.21,-2.21,-2.20
173.29,-0.22,-0.22,2.01,2.01,-2.02,-1.47,-0.05,-2.24,-2.24,-2.24
175.02,-0.49,-0.49,1.78,1.78,-1.78,-1.21,0.11,-2.27,-2.27,-2.27
176.77,-0.76,-0.77,1.55,1.55,-1.53,-0.95,0.27,-2.30,-2.30,-2.32
178.54,-1.06,-1.06,1.30,1.29,-1.28,-0.70,0.43,-2.35,-2.35,-2.36
180.32,-1.37,-1.37,1.02,1.02,-1.03,-0.44,0.59,-2.40,-2.40,-2.39
182.13,-1.69,-1.69,0.73,0.74,-0.77,-0.19,0.75,-2.46,-2.46,-2.43
183.95,-2.01,-2.01,0.46,0.46,-0.51,0.06,0.91,-2.53,-2.52,-2.47
185.79,-2.33,-2.34,0.17,0.17,-0.25,0.31,1.07,-2.58,-2.59,-2.50
187.65,-2.66,-2.66,-0.12,-0.13,0.01,0.56,1.23,-2.65,-2.65,-2.54
189.52,-3.00,-3.00,-0.43,-0.43,0.27,0.81,1.39,-2.73,-2.73,-2.57
191.42,-3.33,-3.33,-0.73,-0.73,0.53,1.05,1.55,-2.80,-2.80,-2.60
193.33,-3.67,-3.68,-1.04,-1.05,0.79,1.29,1.71,-2.89,-2.89,-2.63
195.27,-4.02,-4.03,-1.36,-1.37,1.04,1.53,1.87,-2.98,-2.98,-2.66
197.22,-4.39,-4.39,-1.71,-1.70,1.30,1.77,2.03,-3.09,-3.09,-2.68
199.19,-4.76,-4.76,-2.04,-2.05,1.56,2.00,2.19,-3.20,-3.20,-2.72
201.18,-5.14,-5.14,-2.40,-2.40,1.82,2.23,2.35,-3.32,-3.32,-2.74
203.19,-5.52,-5.52,-2.77,-2.76,2.08,2.46,2.51,-3.45,-3.44,-2.75
205.23,-5.90,-5.91,-3.12,-3.14,2.34,2.69,2.67,-3.57,-3.57,-2.78
207.28,-6.29,-6.29,-3.51,-3.50,2.60,2.92,2.82,-3.70,-3.70,-2.79
209.35,-6.67,-6.66,-3.86,-3.85,2.85,3.14,2.97,-3.82,-3.81,-2.81
211.44,-7.02,-7.02,-4.19,-4.19,3.11,3.36,3.13,-3.91,-3.90,-2.83
213.56,-7.34,-7.35,-4.50,-4.52,3.37,3.57,3.28,-3.97,-3.98,-2.84
215.69,-7.68,-7.69,-4.84,-4.84,3.63,3.79,3.42,-4.05,-4.06,-2.84
217.85,-8.02,-8.02,-5.17,-5.17,3.89,3.99,3.56,-4.14,-4.13,-2.85
220.03,-8.35,-8.35,-5.49,-5.49,4.15,4.20,3.70,-4.21,-4.21,-2.87
222.23,-8.66,-8.67,-5.78,-5.80,4.42,4.39,3.83,-4.24,-4.25,-2.88
224.45,-8.96,-8.96,-6.09,-6.09,4.70,4.58,3.96,-4.27,-4.26,-2.87
226.70,-9.23,-9.22,-6.36,-6.35,4.97,4.76,4.09,-4.26,-4.25,-2.87
228.96,-9.45,-9.45,-6.58,-6.59,5.22,4.93,4.20,-4.23,-4.23,-2.87
231.25,-9.64,-9.65,-6.78,-6.79,5.45,5.09,4.31,-4.19,-4.20,-2.86
233.57,-9.82,-9.82,-6.96,-6.96,5.64,5.25,4.41,-4.18,-4.18,-2.86
235.90,-9.96,-9.96,-7.10,-7.10,5.80,5.39,4.50,-4.17,-4.16,-2.86
238.26,-10.06,-10.07,-7.20,-7.22,5.91,5.52,4.59,-4.15,-4.16,-2.86
240.64,-10.14,-10.14,-7.29,-7.29,5.99,5.63,4.66,-4.15,-4.15,-2.85
243.05,-10.18,-10.16,-7.34,-7.32,6.04,5.73,4.73,-4.15,-4.13,-2.84
245.48,-10.13,-10.14,-7.31,-7.32,6.05,5.81,4.78,-4.08,-4.10,-2.83
247.93,-10.08,-10.09,-7.27,-7.27,6.04,5.88,4.83,-4.04,-4.05,-2.82
250.41,-10.01,-10.01,-7.20,-7.20,6.02,5.93,4.86,-3.99,-3.99,-2.81
252.92,-9.91,-9.91,-7.12,-7.12,6.00,5.97,4.89,-3.91,-3.91,-2.79
255.45,-9.79,-9.80,-7.03,-7.02,6.00,5.98,4.90,-3.79,-3.80,-2.77
258.00,-9.66,-9.66,-6.91,-6.91,6.01,5.99,4.91,-3.65,-3.65,-2.76
260.58,-9.52,-9.52,-6.78,-6.78,6.03,5.98,4.90,-3.49,-3.49,-2.74
263.19,-9.36,-9.37,-6.64,-6.65,6.03,5.95,4.89,-3.33,-3.33,-2.72
265.82,-9.19,-9.20,-6.49,-6.50,6.03,5.91,4.86,-3.17,-3.18,-2.70
268.48,-9.04,-9.02,-6.36,-6.34,6.00,5.86,4.83,-3.05,-3.02,-2.68
271.16,-8.82,-8.83,-6.17,-6.17,5.94,5.79,4.79,-2.88,-2.88,-2.66
273.87,-8.61,-8.62,-5.97,-5.98,5.86,5.72,4.75,-2.75,-2.76,-2.64
276.61,-8.41,-8.42,-5.79,-5.79,5.75,5.63,4.70,-2.66,-2.66,-2.62
279.38,-8.22,-8.22,-5.62,-5.62,5.62,5.54,4.64,-2.60,-2.60,-2.60
282.17,-8.03,-8.03,-5.44,-5.44,5.47,5.44,4.58,-2.57,-2.56,-2.59
284.99,-7.82,-7.83,-5.26,-5.26,5.30,5.33,4.51,-2.53,-2.53,-2.56
287.84,-7.63,-7.63,-5.08,-5.09,5.12,5.22,4.44,-2.52,-2.52,-2.55
290.72,-7.44,-7.44,-4.92,-4.92,4.93,5.10,4.37,-2.51,-2.51,-2.52
293.63,-7.26,-7.26,-4.76,-4.76,4.76,4.98,4.29,-2.50,-2.50,-2.51
296.57,-7.09,-7.09,-4.61,-4.60,4.61,4.86,4.21,-2.49,-2.48,-2.48
299.53,-6.91,-6.92,-4.45,-4.45,4.46,4.74,4.13,-2.45,-2.46,-2.47
302.53,-6.75,-6.76,-4.30,-4.31,4.31,4.62,4.05,-2.44,-2.44,-2.45
305.55,-6.60,-6.60,-4.19,-4.17,4.18,4.49,3.97,-2.43,-2.42,-2.41
308.61,-6.44,-6.44,-4.05,-4.05,4.04,4.37,3.89,-2.40,-2.40,-2.40
311.69,-6.27,-6.28,-3.90,-3.92,3.91,4.25,3.81,-2.36,-2.37,-2.37
314.81,-6.13,-6.12,-3.80,-3.78,3.78,4.13,3.73,-2.35,-2.34,-2.33
317.96,-5.97,-5.97,-3.66,-3.66,3.66,4.01,3.66,-2.31,-2.32,-2.32
321.14,-5.82,-5.83,-3.52,-3.54,3.53,3.89,3.58,-2.29,-2.30,-2.30
324.35,-5.70,-5.69,-3.42,-3.42,3.41,3.78,3.50,-2.29,-2.28,-2.28
327.59,-5.56,-5.56,-3.31,-3.30,3.29,3.66,3.43,-2.27,-2.27,-2.26
330.87,-5.42,-5.42,-3.18,-3.18,3.18,3.55,3.36,-2.24,-2.24,-2.24
334.18,-5.28,-5.29,-3.06,-3.07,3.07,3.45,3.29,-2.21,-2.22,-2.22
337.52,-5.16,-5.16,-2.96,-2.96,2.97,3.34,3.22,-2.20,-2.19,-2.20
340.90,-5.04,-5.04,-2.87,-2.86,2.87,3.24,3.16,-2.17,-2.17,-2.18
344.30,-4.93,-4.94,-2.77,-2.78,2.78,3.14,3.09,-2.15,-2.16,-2.16
347.75,-4.84,-4.84,-2.70,-2.70,2.70,3.04,3.03,-2.14,-2.14,-2.14
351.23,-4.75,-4.75,-2.63,-2.63,2.63,2.95,2.97,-2.12,-2.12,-2.12
354.74,-4.66,-4.66,-2.56,-2.56,2.57,2.86,2.92,-2.10,-2.10,-2.11
358.28,-4.58,-4.58,-2.49,-2.50,2.50,2.77,2.86,-2.08,-2.08,-2.09
361.87,-4.50,-4.51,-2.43,-2.44,2.44,2.69,2.81,-2.07,-2.08,-2.07
365.49,-4.44,-4.44,-2.39,-2.39,2.37,2.60,2.76,-2.08,-2.07,-2.05
369.14,-4.37,-4.36,-2.33,-2.32,2.30,2.52,2.71,-2.08,-2.07,-2.04
372.83,-4.27,-4.27,-2.25,-2.24,2.22,2.45,2.67,-2.05,-2.05,-2.03
376.56,-4.16,-4.17,-2.15,-2.16,2.15,2.37,2.62,-2.01,-2.02,-2.02
380.33,-4.06,-4.06,-2.07,-2.07,2.08,2.30,2.58,-1.98,-1.98,-1.99
384.13,-3.97,-3.98,-1.99,-1.99,2.01,2.23,2.54,-1.96,-1.96,-1.98
387.97,-3.90,-3.90,-1.93,-1.93,1.95,2.16,2.51,-1.95,-1.95,-1.97
391.85,-3.84,-3.85,-1.88,-1.89,1.90,2.10,2.47,-1.95,-1.95,-1.96
395.77,-3.79,-3.80,-1.85,-1.85,1.85,2.03,2.44,-1.94,-1.95,-1.95
399.73,-3.77,-3.76,-1.84,-1.82,1.81,1.97,2.41,-1.96,-1.94,-1.94
403.72,-3.71,-3.71,-1.78,-1.79,1.78,1.91,2.38,-1.93,-1.93,-1.93
407.76,-3.66,-3.67,-1.74,-1.76,1.75,1.86,2.35,-1.91,-1.92,-1.92
411.84,-3.63,-3.63,-1.73,-1.72,1.73,1.80,2.33,-1.91,-1.90,-1.90
415.96,-3.59,-3.59,-1.70,-1.70,1.70,1.75,2.30,-1.90,-1.89,-1.89
420.12,-3.55,-3.56,-1.67,-1.68,1.67,1.70,2.28,-1.88,-1.89,-1.88
424.32,-3.52,-3.52,-1.65,-1.65,1.64,1.65,2.25,-1.88,-1.88,-1.87
428.56,-3.49,-3.49,-1.63,-1.62,1.62,1.60,2.23,-1.88,-1.87,-1.87
432.85,-3.44,-3.45,-1.59,-1.59,1.59,1.56,2.21,-1.85,-1.85,-1.86
437.18,-3.40,-3.41,-1.56,-1.56,1.57,1.51,2.19,-1.83,-1.84,-1.85
441.55,-3.37,-3.38,-1.54,-1.54,1.55,1.47,2.17,-1.83,-1.83,-1.83
445.96,-3.35,-3.35,-1.53,-1.53,1.53,1.43,2.15,-1.82,-1.82,-1.82
450.42,-3.32,-3.32,-1.51,-1.51,1.51,1.39,2.13,-1.81,-1.81,-1.81
454.93,-3.28,-3.29,-1.49,-1.50,1.50,1.35,2.11,-1.78,-1.79,-1.79
459.48,-3.26,-3.26,-1.48,-1.48,1.49,1.31,2.09,-1.78,-1.78,-1.78
464.07,-3.24,-3.24,-1.48,-1.48,1.48,1.27,2.07,-1.77,-1.76,-1.76
468.71,-3.21,-3.22,-1.47,-1.47,1.47,1.24,2.05,-1.74,-1.75,-1.74
473.40,-3.20,-3.20,-1.47,-1.46,1.46,1.20,2.03,-1.74,-1.73,-1.73
478.13,-3.17,-3.17,-1.46,-1.45,1.45,1.17,2.01,-1.72,-1.72,-1.71
482.91,-3.13,-3.15,-1.43,-1.44,1.45,1.14,1.98,-1.69,-1.70,-1.71
487.74,-3.12,-3.12,-1.44,-1.44,1.44,1.11,1.96,-1.69,-1.69,-1.69
492.62,-3.11,-3.10,-1.45,-1.43,1.43,1.08,1.94,-1.68,-1.67,-1.67
