frequency,raw
20.00,4.75
20.20,4.87
20.40,4.98
20.61,5.10
20.81,5.21
21.02,5.33
21.23,5.44
21.44,5.55
21.66,5.66
21.87,5.75
22.09,5.84
22.31,5.92
22.54,5.99
22.76,6.06
22.99,6.13
23.22,6.19
23.45,6.26
23.69,6.33
23.92,6.40
24.16,6.47
24.40,6.53
24.65,6.59
24.89,6.63
25.14,6.67
25.39,6.69
25.65,6.70
25.91,6.71
26.16,6.72
26.43,6.71
26.69,6.71
26.96,6.69
27.23,6.67
27.50,6.63
27.77,6.58
28.05,6.52
28.33,6.45
28.62,6.39
28.90,6.34
29.19,6.30
29.48,6.28
29.78,6.27
30.08,6.26
30.38,6.25
30.68,6.25
30.99,6.27
31.30,6.29
31.61,6.34
31.93,6.41
32.24,6.50
32.57,6.59
32.89,6.71
33.22,6.83
33.55,6.98
33.89,7.14
34.23,7.31
34.57,7.48
34.92,7.63
35.27,7.74
35.62,7.82
35.97,7.86
36.33,7.89
36.70,7.93
37.06,7.97
37.43,8.02
37.81,8.05
38.19,8.07
38.57,8.04
38.95,8.00
39.34,7.95
39.74,7.91
40.14,7.88
40.54,7.85
40.94,7.79
41.35,7.73
41.76,7.65
42.18,7.58
42.60,7.51
43.03,7.44
43.46,7.35
43.90,7.27
44.33,7.20
44.78,7.14
45.23,7.08
45.68,6.99
46.13,6.88
46.60,6.73
47.06,6.55
47.53,6.36
48.01,6.15
48.49,5.93
48.97,5.71
49.46,5.48
49.96,5.25
50.46,5.03
50.96,4.82
51.47,4.62
51.99,4.41
52.51,4.21
53.03,4.00
53.56,3.82
54.10,3.64
54.64,3.46
55.18,3.26
55.74,3.09
56.29,2.93
56.86,2.78
57.42,2.61
58.00,2.45
58.58,2.31
59.16,2.18
59.76,2.05
60.35,1.97
60.96,1.93
61.57,1.95
62.18,1.97
62.80,1.97
63.43,1.99
64.07,2.02
64.71,2.05
65.35,2.09
66.01,2.12
66.67,2.16
67.33,2.20
68.01,2.23
68.69,2.29
69.37,2.35
70.07,2.43
70.77,2.51
71.48,2.57
72.19,2.63
72.91,2.68
73.64,2.73
74.38,2.75
75.12,2.77
75.87,2.80
76.63,2.80
77.40,2.80
78.17,2.79
78.95,2.78
79.74,2.77
80.54,2.75
81.35,2.74
82.16,2.69
82.98,2.64
83.81,2.59
84.65,2.57
85.50,2.52
86.35,2.47
87.22,2.43
88.09,2.39
88.97,2.35
89.86,2.30
90.76,2.24
91.66,2.18
92.58,2.11
93.51,2.04
94.44,1.95
95.39,1.87
96.34,1.78
97.30,1.69
98.28,1.58
99.26,1.48
100.25,1.38
101.25,1.28
102.27,1.14
103.29,1.00
104.32,0.87
105.37,0.76
106.42,0.67
107.48,0.58
108.56,0.50
109.64,0.43
110.74,0.38
111.85,0.29
112.97,0.21
114.10,0.12
115.24,0.03
116.39,-0.03
117.55,-0.11
118.73,-0.20
119.92,-0.28
121.12,-0.35
122.33,-0.42
123.55,-0.49
124.79,-0.53
126.03,-0.59
127.29,-0.61
128.57,-0.62
129.85,-0.63
131.15,-0.65
132.46,-0.65
133.79,-0.64
135.12,-0.64
136.48,-0.63
137.84,-0.60
139.22,-0.56
140.61,-0.53
142.02,-0.51
143.44,-0.49
144.87,-0.46
146.32,-0.42
147.78,-0.37
149.26,-0.33
150.75,-0.30
152.26,-0.28
153.78,-0.26
155.32,-0.25
156.88,-0.24
158.44,-0.23
160.03,-0.23
161.63,-0.24
163.24,-0.24
164.88,-0.25
166.53,-0.27
168.19,-0.28
169.87,-0.28
171.57,-0.31
173.29,-0.36
175.02,-0.42
176.77,-0.44
178.54,-0.47
180.32,-0.50
182.13,-0.54
183.95,-0.58
185.79,-0.63
187.65,-0.68
189.52,-0.70
191.42,-0.74
193.33,-0.79
195.27,-0.84
197.22,-0.90
199.19,-0.96
201.18,-1.02
203.19,-1.07
205.23,-1.13
207.28,-1.18
209.35,-1.23
211.44,-1.30
213.56,-1.35
215.69,-1.41
217.85,-1.46
220.03,-1.52
222.23,-1.58
224.45,-1.62
226.70,-1.66
228.96,-1.71
231.25,-1.75
233.57,-1.78
235.90,-1.82
238.26,-1.85
240.64,-1.88
243.05,-1.92
245.48,-1.94
247.93,-1.96
250.41,-1.97
252.92,-1.97
255.45,-1.98
258.00,-1.99
260.58,-1.98
263.19,-1.97
265.82,-1.95
268.48,-1.93
271.16,-1.91
273.87,-1.89
276.61,-1.87
279.38,-1.84
282.17,-1.82
284.99,-1.79
287.84,-1.77
290.72,-1.75
293.63,-1.72
296.57,-1.69
299.53,-1.66
302.53,-1.63
305.55,-1.61
308.61,-1.60
311.69,-1.58
314.81,-1.54
317.96,-1.52
321.14,-1.51
324.35,-1.50
327.59,-1.49
330.87,-1.47
334.18,-1.46
337.52,-1.46
340.90,-1.46
344.30,-1.45
347.75,-1.45
351.23,-1.45
354.74,-1.44
358.28,-1.45
361.87,-1.46
365.49,-1.45
369.14,-1.46
372.83,-1.43
376.56,-1.37
380.33,-1.31
384.13,-1.24
387.97,-1.18
391.85,-1.14
395.77,-1.10
399.73,-1.09
403.72,-1.07
407.76,-1.07
411.84,-1.08
415.96,-1.07
420.12,-1.08
424.32,-1.09
428.56,-1.09
432.85,-1.09
437.18,-1.10
441.55,-1.11
445.96,-1.13
450.42,-1.14
454.93,-1.13
459.48,-1.15
464.07,-1.16
468.71,-1.16
473.40,-1.17
478.13,-1.18
482.91,-1.18
487.74,-1.18
492.62,-1.18
497.55,-1.18
502.52,-1.18
507.55,-1.17
512.62,-1.17
517.75,-1.15
522.93,-1.14
528.16,-1.11
533.44,-1.10
538.77,-1.10
544.16,-1.08
549.60,-1.07
555.10,-1.06
560.65,-1.05
566.25,-1.06
571.92,-1.08
577.64,-1.12
583.41,-1.15
589.25,-1.19
595.14,-1.20
601.09,-1.22
607.10,-1.25
613.17,-1.30
619.30,-1.32
625.50,-1.35
631.75,-1.38
638.07,-1.40
644.45,-1.41
650.89,-1.42
657.40,-1.46
663.98,-1.47
670.62,-1.47
677.32,-1.49
684.10,-1.50
690.94,-1.50
697.85,-1.51
704.83,-1.52
711.87,-1.52
718.99,-1.50
726.18,-1.48
733.44,-1.46
740.78,-1.45
748.19,-1.39
755.67,-1.37
763.23,-1.35
770.86,-1.31
778.57,-1.28
786.35,-1.26
794.22,-1.22
802.16,-1.17
810.18,-1.11
818.28,-1.08
826.46,-1.05
834.73,-1.00
843.08,-0.94
851.51,-0.87
860.02,-0.80
868.62,-0.72
877.31,-0.65
886.08,-0.59
894.94,-0.51
903.89,-0.43
912.93,-0.33
922.06,-0.26
931.28,-0.19
940.59,-0.13
950.00,-0.09
959.50,-0.10
969.09,-0.11
978.78,-0.12
988.57,-0.10
998.46,-0.01
1008.44,0.04
1018.53,0.10
1028.71,0.16
1039.00,0.21
1049.39,0.25
1059.88,0.28
1070.48,0.29
1081.19,0.29
1092.00,0.28
1102.92,0.24
1113.95,0.16
1125.09,0.05
1136.34,-0.08
1147.70,-0.28
1159.18,-0.53
1170.77,-0.80
1182.48,-1.02
1194.30,-1.15
1206.25,-1.28
1218.31,-1.30
1230.49,-1.25
1242.80,-1.18
1255.22,-1.06
1267.78,-0.90
1280.45,-0.74
1293.26,-0.54
1306.19,-0.34
1319.25,-0.17
1332.45,-0.01
1345.77,0.12
1359.23,0.20
1372.82,0.29
1386.55,0.40
1400.41,0.53
1414.42,0.66
1428.56,0.79
1442.85,0.89
1457.28,0.96
1471.85,1.02
1486.57,1.03
1501.43,1.03
1516.45,0.96
1531.61,0.90
1546.93,0.86
1562.40,0.84
1578.02,0.84
1593.80,0.94
1609.74,1.08
1625.84,1.23
1642.10,1.45
1658.52,1.67
1675.10,1.91
1691.85,2.13
1708.77,2.35
1725.86,2.57
1743.12,2.76
1760.55,2.93
1778.15,3.10
1795.94,3.24
1813.90,3.38
1832.03,3.52
1850.36,3.66
1868.86,3.81
1887.55,3.96
1906.42,4.11
1925.49,4.25
1944.74,4.41
1964.19,4.56
1983.83,4.72
2003.67,4.88
2023.71,5.04
2043.94,5.20
2064.38,5.35
2085.03,5.48
2105.88,5.62
2126.94,5.75
2148.20,5.86
2169.69,5.97
2191.38,6.06
2213.30,6.13
2235.43,6.19
2257.78,6.24
2280.36,6.23
2303.17,6.16
2326.20,6.17
2349.46,6.19
2372.95,6.23
2396.68,6.29
2420.65,6.50
2444.86,6.76
2469.31,7.04
2494.00,7.34
2518.94,7.61
2544.13,7.85
2569.57,8.04
2595.27,8.21
2621.22,8.36
2647.43,8.53
2673.90,8.71
2700.64,8.89
2727.65,9.07
2754.93,9.24
2782.48,9.43
2810.30,9.62
2838.40,9.81
2866.79,10.00
2895.46,10.19
2924.41,10.36
2953.65,10.53
2983.19,10.65
3013.02,10.75
3043.15,10.81
3073.58,10.80
3104.32,10.69
3135.36,10.43
3166.72,10.03
3198.38,9.52
3230.37,9.07
3262.67,8.82
3295.30,8.86
3328.25,9.32
3361.53,9.81
3395.15,10.25
3429.10,10.64
3463.39,10.93
3498.03,11.07
3533.01,11.14
3568.34,11.08
3604.02,10.89
3640.06,10.49
3676.46,10.15
3713.22,9.84
3750.36,9.53
3787.86,9.14
3825.74,8.78
3864.00,8.60
3902.64,8.55
3941.66,8.53
3981.08,8.60
4020.89,8.70
4061.10,8.79
4101.71,8.60
4142.73,8.39
4184.15,8.17
4226.00,7.92
4268.26,7.67
4310.94,7.43
4354.05,7.25
4397.59,7.08
4441.56,6.93
4485.98,6.81
4530.84,6.73
4576.15,6.68
4621.91,6.65
4668.13,6.67
4714.81,6.62
4761.96,6.41
4809.58,5.80
4857.67,4.56
4906.25,3.42
4955.31,2.53
5004.87,2.11
5054.91,2.93
5105.46,3.37
5156.52,3.48
5208.08,3.84
5260.16,4.40
5312.77,4.93
5365.89,5.18
5419.55,5.09
5473.75,4.82
5528.49,4.56
5583.77,4.77
5639.61,5.29
5696.00,5.94
5752.96,6.28
5810.49,6.54
5868.60,6.60
5927.28,6.58
5986.56,6.49
6046.42,6.36
6106.89,6.23
6167.96,6.05
6229.64,5.73
6291.93,5.22
6354.85,4.41
6418.40,3.69
6482.58,3.33
6547.41,1.38
6612.88,-0.95
6679.01,-2.42
6745.80,-2.10
6813.26,-1.11
6881.39,-0.78
6950.21,-1.07
7019.71,-1.60
7089.91,-2.16
7160.81,-3.55
7232.41,-4.39
7304.74,-4.31
7377.79,-3.10
7451.56,-2.30
7526.08,-1.98
7601.34,-2.22
7677.35,-2.71
7754.13,-3.21
7831.67,-2.26
7909.98,-1.42
7989.08,-0.76
8068.98,-0.09
8149.67,0.47
8231.16,0.80
8313.47,1.01
8396.61,1.11
8480.57,0.98
8565.38,0.81
8651.03,0.45
8737.54,-0.25
8824.92,-0.18
8913.17,-0.18
9002.30,-0.27
9092.32,-1.34
9183.25,-2.47
9275.08,-3.62
9367.83,-4.73
9461.51,-5.73
9556.12,-6.82
9651.68,-8.31
9748.20,-10.49
9845.68,-11.34
9944.14,-11.87
10043.58,-11.70
10144.02,-10.83
10245.46,-8.75
10347.91,-6.61
10451.39,-4.57
10555.91,-3.04
10661.46,-2.16
10768.08,-2.01
10875.76,-3.08
10984.52,-4.24
11094.36,-5.38
11205.31,-6.38
11317.36,-6.88
11430.53,-7.29
11544.84,-7.43
11660.29,-7.31
11776.89,-6.74
11894.66,-5.74
12013.60,-4.75
12133.74,-3.36
12255.08,-1.88
12377.63,-0.63
12501.41,0.65
12626.42,1.76
12752.68,2.63
12880.21,3.38
13009.01,4.10
13139.10,4.82
13270.49,5.24
13403.20,5.32
13537.23,4.34
13672.60,3.31
13809.33,2.23
13947.42,0.96
14086.90,-0.21
14227.77,-1.34
14370.04,-2.25
14513.74,-2.90
14658.88,-3.24
14805.47,-3.68
14953.52,-4.28
15103.06,-5.44
15254.09,-6.86
15406.63,-8.37
15560.70,-9.31
15716.30,-9.34
15873.47,-9.01
16032.20,-8.51
16192.52,-7.77
16354.45,-6.69
16517.99,-5.47
16683.17,-4.70
16850.01,-3.90
17018.51,-3.18
17188.69,-3.34
17360.58,-4.16
17534.18,-5.50
17709.53,-7.43
17886.62,-9.69
18065.49,-12.39
18246.14,-15.69
18428.60,-16.60
18612.89,-15.82
18799.02,-13.97
18987.01,-12.03
19176.88,-10.41
19368.65,-9.02
19562.33,-7.86
19757.96,-6.94
19955.54,-6.02
