frequency,raw
20.00,2.92
20.20,2.98
20.40,3.05
20.61,3.11
20.81,3.17
21.02,3.22
21.23,3.27
21.44,3.32
21.66,3.36
21.87,3.40
22.09,3.45
22.31,3.49
22.54,3.53
22.76,3.58
22.99,3.62
23.22,3.67
23.45,3.71
23.69,3.75
23.92,3.79
24.16,3.82
24.40,3.86
24.65,3.89
24.89,3.91
25.14,3.94
25.39,3.95
25.65,3.97
25.91,3.97
26.16,3.98
26.43,3.98
26.69,3.99
26.96,4.00
27.23,4.01
27.50,4.02
27.77,4.03
28.05,4.04
28.33,4.04
28.62,4.04
28.90,4.03
29.19,4.02
29.48,4.01
29.78,4.00
30.08,3.99
30.38,3.99
30.68,3.99
30.99,4.00
31.30,4.02
31.61,4.03
31.93,4.05
32.24,4.05
32.57,4.04
32.89,4.02
33.22,4.00
33.55,3.97
33.89,3.93
34.23,3.92
34.57,3.90
34.92,3.91
35.27,3.90
35.62,3.89
35.97,3.86
36.33,3.83
36.70,3.79
37.06,3.77
37.43,3.76
37.81,3.76
38.19,3.76
38.57,3.73
38.95,3.71
39.34,3.68
39.74,3.66
40.14,3.65
40.54,3.63
40.94,3.60
41.35,3.56
41.76,3.52
42.18,3.50
42.60,3.48
43.03,3.46
43.46,3.41
43.90,3.36
44.33,3.32
44.78,3.29
45.23,3.27
45.68,3.24
46.13,3.20
46.60,3.14
47.06,3.08
47.53,3.03
48.01,3.00
48.49,2.99
48.97,2.99
49.46,2.99
49.96,2.98
50.46,2.96
50.96,2.94
51.47,2.93
51.99,2.90
52.51,2.86
53.03,2.81
53.56,2.76
54.10,2.72
54.64,2.67
55.18,2.63
55.74,2.63
56.29,2.64
56.86,2.67
57.42,2.70
58.00,2.74
58.58,2.76
59.16,2.78
59.76,2.80
60.35,2.84
60.96,2.89
61.57,2.92
62.18,2.96
62.80,3.01
63.43,3.08
64.07,3.15
64.71,3.23
65.35,3.32
66.01,3.41
66.67,3.49
67.33,3.55
68.01,3.59
68.69,3.59
69.37,3.56
70.07,3.51
70.77,3.43
71.48,3.36
72.19,3.29
72.91,3.23
73.64,3.20
74.38,3.18
75.12,3.17
75.87,3.15
76.63,3.13
77.40,3.09
78.17,3.04
78.95,2.98
79.74,2.92
80.54,2.85
81.35,2.79
82.16,2.73
82.98,2.67
83.81,2.61
84.65,2.56
85.50,2.51
86.35,2.46
87.22,2.42
88.09,2.37
88.97,2.32
89.86,2.29
90.76,2.25
91.66,2.21
92.58,2.17
93.51,2.15
94.44,2.11
95.39,2.07
96.34,2.04
97.30,2.03
98.28,2.01
99.26,1.99
100.25,1.98
101.25,1.98
102.27,1.98
103.29,1.98
104.32,1.97
105.37,1.95
106.42,1.94
107.48,1.94
108.56,1.92
109.64,1.91
110.74,1.89
111.85,1.89
112.97,1.87
114.10,1.86
115.24,1.85
116.39,1.84
117.55,1.83
118.73,1.81
119.92,1.81
121.12,1.80
122.33,1.78
123.55,1.77
124.79,1.75
126.03,1.73
127.29,1.72
128.57,1.71
129.85,1.69
131.15,1.68
132.46,1.66
133.79,1.65
135.12,1.63
136.48,1.61
137.84,1.59
139.22,1.58
140.61,1.57
142.02,1.55
143.44,1.54
144.87,1.54
146.32,1.53
147.78,1.52
149.26,1.49
150.75,1.46
152.26,1.42
153.78,1.38
155.32,1.35
156.88,1.33
158.44,1.30
160.03,1.28
161.63,1.27
163.24,1.25
164.88,1.22
166.53,1.19
168.19,1.15
169.87,1.12
171.57,1.11
173.29,1.09
175.02,1.05
176.77,1.02
178.54,0.99
180.32,0.96
182.13,0.94
183.95,0.92
185.79,0.90
187.65,0.88
189.52,0.86
191.42,0.85
193.33,0.84
195.27,0.82
197.22,0.81
199.19,0.82
201.18,0.80
203.19,0.77
205.23,0.75
207.28,0.72
209.35,0.68
211.44,0.68
213.56,0.67
215.69,0.65
217.85,0.64
220.03,0.62
222.23,0.61
224.45,0.60
226.70,0.58
228.96,0.55
231.25,0.54
233.57,0.54
235.90,0.54
238.26,0.52
240.64,0.51
243.05,0.50
245.48,0.51
247.93,0.52
250.41,0.52
252.92,0.51
255.45,0.51
258.00,0.51
260.58,0.53
263.19,0.53
265.82,0.53
268.48,0.54
271.16,0.54
273.87,0.55
276.61,0.57
279.38,0.58
282.17,0.59
284.99,0.61
287.84,0.61
290.72,0.62
293.63,0.64
296.57,0.67
299.53,0.69
302.53,0.70
305.55,0.73
308.61,0.77
311.69,0.79
314.81,0.82
317.96,0.85
321.14,0.88
324.35,0.91
327.59,0.94
330.87,0.97
334.18,1.01
337.52,1.03
340.90,1.06
344.30,1.11
347.75,1.13
351.23,1.16
354.74,1.18
358.28,1.20
361.87,1.22
365.49,1.24
369.14,1.23
372.83,1.21
376.56,1.22
380.33,1.27
384.13,1.29
387.97,1.30
391.85,1.32
395.77,1.33
399.73,1.36
403.72,1.36
407.76,1.36
411.84,1.36
415.96,1.36
420.12,1.36
424.32,1.35
428.56,1.34
432.85,1.33
437.18,1.32
441.55,1.29
445.96,1.28
450.42,1.27
454.93,1.24
459.48,1.23
464.07,1.22
468.71,1.19
473.40,1.19
478.13,1.17
482.91,1.14
487.74,1.14
492.62,1.13
497.55,1.11
502.52,1.09
507.55,1.06
512.62,1.05
517.75,1.04
522.93,1.04
528.16,1.02
533.44,1.01
538.77,1.00
544.16,1.01
549.60,0.98
555.10,0.95
560.65,0.93
566.25,0.91
571.92,0.89
577.64,0.85
583.41,0.81
589.25,0.77
595.14,0.73
601.09,0.68
607.10,0.63
613.17,0.59
619.30,0.54
625.50,0.49
631.75,0.44
638.07,0.40
644.45,0.35
650.89,0.31
657.40,0.27
663.98,0.23
670.62,0.20
677.32,0.18
684.10,0.16
690.94,0.14
697.85,0.12
704.83,0.10
711.87,0.08
718.99,0.07
726.18,0.07
733.44,0.07
740.78,0.05
748.19,0.04
755.67,0.05
763.23,0.07
770.86,0.07
778.57,0.06
786.35,0.06
794.22,0.04
802.16,0.03
810.18,0.04
818.28,0.02
826.46,0.00
834.73,0.01
843.08,0.00
851.51,-0.01
860.02,-0.02
868.62,-0.03
877.31,-0.03
886.08,-0.05
894.94,-0.06
903.89,-0.07
912.93,-0.06
922.06,-0.08
931.28,-0.08
940.59,-0.08
950.00,-0.06
959.50,-0.06
969.09,-0.03
978.78,-0.01
988.57,-0.00
998.46,-0.01
1008.44,0.03
1018.53,0.07
1028.71,0.08
1039.00,0.11
1049.39,0.14
1059.88,0.18
1070.48,0.21
1081.19,0.26
1092.00,0.34
1102.92,0.39
1113.95,0.45
1125.09,0.52
1136.34,0.57
1147.70,0.64
1159.18,0.70
1170.77,0.77
1182.48,0.84
1194.30,0.91
1206.25,0.97
1218.31,1.04
1230.49,1.12
1242.80,1.21
1255.22,1.28
1267.78,1.35
1280.45,1.43
1293.26,1.49
1306.19,1.54
1319.25,1.59
1332.45,1.65
1345.77,1.70
1359.23,1.73
1372.82,1.75
1386.55,1.79
1400.41,1.84
1414.42,1.95
1428.56,2.05
1442.85,2.15
1457.28,2.25
1471.85,2.36
1486.57,2.45
1501.43,2.54
1516.45,2.64
1531.61,2.73
1546.93,2.80
1562.40,2.89
1578.02,2.97
1593.80,3.06
1609.74,3.15
1625.84,3.23
1642.10,3.32
1658.52,3.40
1675.10,3.49
1691.85,3.59
1708.77,3.68
1725.86,3.78
1743.12,3.86
1760.55,3.97
1778.15,4.07
1795.94,4.17
1813.90,4.29
1832.03,4.40
1850.36,4.50
1868.86,4.63
1887.55,4.77
1906.42,4.89
1925.49,5.02
1944.74,5.14
1964.19,5.25
1983.83,5.34
2003.67,5.44
2023.71,5.55
2043.94,5.67
2064.38,5.79
2085.03,5.90
2105.88,6.00
2126.94,6.09
2148.20,6.20
2169.69,6.30
2191.38,6.40
2213.30,6.52
2235.43,6.66
2257.78,6.79
2280.36,6.94
2303.17,7.10
2326.20,7.25
2349.46,7.40
2372.95,7.54
2396.68,7.69
2420.65,7.80
2444.86,7.92
2469.31,8.06
2494.00,8.18
2518.94,8.27
2544.13,8.36
2569.57,8.51
2595.27,8.67
2621.22,8.84
2647.43,9.03
2673.90,9.18
2700.64,9.34
2727.65,9.49
2754.93,9.65
2782.48,9.79
2810.30,9.93
2838.40,10.06
2866.79,10.17
2895.46,10.27
2924.41,10.31
2953.65,10.33
2983.19,10.26
3013.02,10.12
3043.15,9.88
3073.58,9.53
3104.32,9.11
3135.36,8.73
3166.72,8.45
3198.38,8.26
3230.37,8.14
3262.67,8.01
3295.30,7.89
3328.25,7.80
3361.53,7.74
3395.15,7.73
3429.10,7.73
3463.39,7.75
3498.03,7.77
3533.01,7.77
3568.34,7.74
3604.02,7.69
3640.06,7.59
3676.46,7.47
3713.22,7.32
3750.36,7.15
3787.86,6.98
3825.74,6.80
3864.00,6.58
3902.64,6.37
3941.66,6.15
3981.08,6.00
4020.89,5.87
4061.10,5.73
4101.71,5.56
4142.73,5.36
4184.15,5.15
4226.00,4.93
4268.26,4.70
4310.94,4.45
4354.05,4.33
4397.59,4.33
4441.56,4.41
4485.98,4.40
4530.84,4.35
4576.15,4.27
4621.91,4.19
4668.13,4.13
4714.81,4.05
4761.96,3.98
4809.58,3.97
4857.67,4.04
4906.25,4.17
4955.31,4.34
5004.87,4.58
5054.91,4.86
5105.46,5.12
5156.52,5.34
5208.08,5.45
5260.16,5.39
5312.77,5.20
5365.89,4.79
5419.55,4.22
5473.75,3.54
5528.49,2.76
5583.77,1.88
5639.61,1.08
5696.00,0.30
5752.96,-0.17
5810.49,-0.58
5868.60,-0.85
5927.28,-1.18
5986.56,-1.57
6046.42,-2.09
6106.89,-2.64
6167.96,-3.15
6229.64,-3.53
6291.93,-3.57
6354.85,-3.07
6418.40,-2.38
6482.58,-1.41
6547.41,-0.30
6612.88,0.87
6679.01,2.09
6745.80,3.24
6813.26,4.31
6881.39,5.21
6950.21,5.88
7019.71,6.36
7089.91,6.52
7160.81,6.21
7232.41,5.63
7304.74,4.77
7377.79,3.58
7451.56,2.30
7526.08,0.99
7601.34,-0.29
7677.35,-1.36
7754.13,-2.34
7831.67,-2.95
7909.98,-3.37
7989.08,-3.51
8068.98,-3.30
8149.67,-2.96
8231.16,-2.49
8313.47,-1.94
8396.61,-1.34
8480.57,-0.66
8565.38,0.18
8651.03,1.14
8737.54,2.25
8824.92,3.58
8913.17,4.96
9002.30,6.32
9092.32,6.55
9183.25,5.65
9275.08,4.09
9367.83,2.13
9461.51,0.28
9556.12,-1.50
9651.68,-3.16
9748.20,-4.63
9845.68,-6.08
9944.14,-7.37
10043.58,-8.69
10144.02,-10.17
10245.46,-11.79
10347.91,-13.09
10451.39,-13.67
10555.91,-11.33
10661.46,-7.67
10768.08,-3.21
10875.76,0.51
10984.52,2.85
11094.36,4.09
11205.31,3.69
11317.36,1.99
11430.53,0.21
11544.84,-1.54
11660.29,-3.06
11776.89,-4.40
11894.66,-5.53
12013.60,-6.65
12133.74,-7.66
12255.08,-8.20
12377.63,-8.25
12501.41,-7.60
12626.42,-6.37
12752.68,-5.31
12880.21,-4.97
13009.01,-5.03
13139.10,-5.10
13270.49,-5.52
13403.20,-6.18
13537.23,-7.24
13672.60,-8.28
13809.33,-9.27
13947.42,-9.77
14086.90,-9.99
14227.77,-10.04
14370.04,-10.05
14513.74,-10.13
14658.88,-11.36
14805.47,-13.63
14953.52,-17.59
15103.06,-17.71
15254.09,-16.02
15406.63,-12.40
15560.70,-9.41
15716.30,-7.40
15873.47,-6.04
16032.20,-5.05
16192.52,-4.87
16354.45,-5.52
16517.99,-6.70
16683.17,-8.41
16850.01,-9.72
17018.51,-10.59
17188.69,-10.15
17360.58,-9.94
17534.18,-10.07
17709.53,-11.05
17886.62,-12.93
18065.49,-14.99
18246.14,-16.91
18428.60,-17.72
18612.89,-18.13
18799.02,-17.90
18987.01,-16.55
19176.88,-15.33
19368.65,-14.59
19562.33,-14.24
19757.96,-14.09
19955.54,-13.94
