frequency,raw
20.00,-3.89
20.20,-3.84
20.40,-3.78
20.61,-3.71
20.81,-3.63
21.02,-3.54
21.23,-3.44
21.44,-3.36
21.66,-3.28
21.87,-3.21
22.09,-3.15
22.31,-3.10
22.54,-3.05
22.76,-3.00
22.99,-2.95
23.22,-2.88
23.45,-2.80
23.69,-2.72
23.92,-2.64
24.16,-2.57
24.40,-2.52
24.65,-2.48
24.89,-2.46
25.14,-2.45
25.39,-2.44
25.65,-2.43
25.91,-2.40
26.16,-2.36
26.43,-2.31
26.69,-2.27
26.96,-2.22
27.23,-2.19
27.50,-2.17
27.77,-2.15
28.05,-2.13
28.33,-2.10
28.62,-2.08
28.90,-2.05
29.19,-2.03
29.48,-2.01
29.78,-2.00
30.08,-1.98
30.38,-1.97
30.68,-1.94
30.99,-1.91
31.30,-1.88
31.61,-1.85
31.93,-1.84
32.24,-1.85
32.57,-1.85
32.89,-1.86
33.22,-1.85
33.55,-1.84
33.89,-1.82
34.23,-1.80
34.57,-1.78
34.92,-1.76
35.27,-1.75
35.62,-1.73
35.97,-1.72
36.33,-1.71
36.70,-1.71
37.06,-1.70
37.43,-1.70
37.81,-1.69
38.19,-1.68
38.57,-1.66
38.95,-1.65
39.34,-1.65
39.74,-1.66
40.14,-1.68
40.54,-1.70
40.94,-1.71
41.35,-1.72
41.76,-1.71
42.18,-1.69
42.60,-1.67
43.03,-1.66
43.46,-1.66
43.90,-1.67
44.33,-1.68
44.78,-1.68
45.23,-1.68
45.68,-1.68
46.13,-1.69
46.60,-1.70
47.06,-1.69
47.53,-1.68
48.01,-1.67
48.49,-1.68
48.97,-1.70
49.46,-1.72
49.96,-1.71
50.46,-1.68
50.96,-1.65
51.47,-1.63
51.99,-1.64
52.51,-1.66
53.03,-1.67
53.56,-1.68
54.10,-1.68
54.64,-1.68
55.18,-1.67
55.74,-1.67
56.29,-1.68
56.86,-1.69
57.42,-1.70
58.00,-1.72
58.58,-1.74
59.16,-1.75
59.76,-1.76
60.35,-1.77
60.96,-1.79
61.57,-1.81
62.18,-1.83
62.80,-1.85
63.43,-1.87
64.07,-1.89
64.71,-1.91
65.35,-1.92
66.01,-1.92
66.67,-1.93
67.33,-1.94
68.01,-1.95
68.69,-1.96
69.37,-1.97
70.07,-1.99
70.77,-2.01
71.48,-2.04
72.19,-2.06
72.91,-2.07
73.64,-2.08
74.38,-2.09
75.12,-2.10
75.87,-2.11
76.63,-2.13
77.40,-2.14
78.17,-2.16
78.95,-2.17
79.74,-2.20
80.54,-2.22
81.35,-2.24
82.16,-2.26
82.98,-2.27
83.81,-2.28
84.65,-2.29
85.50,-2.30
86.35,-2.31
87.22,-2.32
88.09,-2.34
88.97,-2.36
89.86,-2.38
90.76,-2.40
91.66,-2.42
92.58,-2.43
93.51,-2.44
94.44,-2.44
95.39,-2.44
96.34,-2.44
97.30,-2.44
98.28,-2.44
99.26,-2.45
100.25,-2.46
101.25,-2.47
102.27,-2.47
103.29,-2.47
104.32,-2.47
105.37,-2.48
106.42,-2.48
107.48,-2.48
108.56,-2.49
109.64,-2.49
110.74,-2.50
111.85,-2.51
112.97,-2.52
114.10,-2.54
115.24,-2.56
116.39,-2.57
117.55,-2.58
118.73,-2.59
119.92,-2.61
121.12,-2.62
122.33,-2.64
123.55,-2.66
124.79,-2.67
126.03,-2.69
127.29,-2.70
128.57,-2.72
129.85,-2.73
131.15,-2.75
132.46,-2.75
133.79,-2.76
135.12,-2.78
136.48,-2.79
137.84,-2.80
139.22,-2.80
140.61,-2.80
142.02,-2.80
143.44,-2.81
144.87,-2.82
146.32,-2.83
147.78,-2.84
149.26,-2.83
150.75,-2.83
152.26,-2.84
153.78,-2.83
155.32,-2.83
156.88,-2.82
158.44,-2.81
160.03,-2.80
161.63,-2.80
163.24,-2.80
164.88,-2.80
166.53,-2.80
168.19,-2.80
169.87,-2.79
171.57,-2.80
173.29,-2.80
175.02,-2.81
176.77,-2.80
178.54,-2.80
180.32,-2.80
182.13,-2.80
183.95,-2.80
185.79,-2.81
187.65,-2.81
189.52,-2.82
191.42,-2.83
193.33,-2.84
195.27,-2.85
197.22,-2.86
199.19,-2.88
201.18,-2.88
203.19,-2.89
205.23,-2.90
207.28,-2.91
209.35,-2.91
211.44,-2.90
213.56,-2.90
215.69,-2.90
217.85,-2.91
220.03,-2.92
222.23,-2.92
224.45,-2.93
226.70,-2.93
228.96,-2.95
231.25,-2.96
233.57,-2.98
235.90,-2.99
238.26,-3.00
240.64,-3.01
243.05,-3.03
245.48,-3.06
247.93,-3.11
250.41,-3.17
252.92,-3.23
255.45,-3.29
258.00,-3.36
260.58,-3.44
263.19,-3.51
265.82,-3.60
268.48,-3.69
271.16,-3.78
273.87,-3.86
276.61,-3.93
279.38,-3.97
282.17,-4.00
284.99,-4.03
287.84,-4.06
290.72,-4.07
293.63,-4.08
296.57,-4.07
299.53,-4.06
302.53,-4.02
305.55,-3.98
308.61,-3.94
311.69,-3.92
314.81,-3.90
317.96,-3.87
321.14,-3.85
324.35,-3.82
327.59,-3.78
330.87,-3.75
334.18,-3.73
337.52,-3.71
340.90,-3.70
344.30,-3.68
347.75,-3.66
351.23,-3.65
354.74,-3.63
358.28,-3.60
361.87,-3.57
365.49,-3.53
369.14,-3.50
372.83,-3.47
376.56,-3.44
380.33,-3.41
384.13,-3.38
387.97,-3.36
391.85,-3.34
395.77,-3.32
399.73,-3.31
403.72,-3.29
407.76,-3.27
411.84,-3.25
415.96,-3.23
420.12,-3.22
424.32,-3.21
428.56,-3.18
432.85,-3.16
437.18,-3.12
441.55,-3.09
445.96,-3.06
450.42,-3.02
454.93,-2.99
459.48,-2.96
464.07,-2.93
468.71,-2.90
473.40,-2.87
478.13,-2.83
482.91,-2.80
487.74,-2.76
492.62,-2.71
497.55,-2.67
502.52,-2.62
507.55,-2.58
512.62,-2.53
517.75,-2.50
522.93,-2.48
528.16,-2.48
533.44,-2.51
538.77,-2.54
544.16,-2.59
549.60,-2.63
555.10,-2.68
560.65,-2.73
566.25,-2.79
571.92,-2.86
577.64,-2.93
583.41,-2.99
589.25,-3.03
595.14,-3.04
601.09,-3.04
607.10,-3.01
613.17,-2.98
619.30,-2.94
625.50,-2.89
631.75,-2.83
638.07,-2.76
644.45,-2.68
650.89,-2.60
657.40,-2.51
663.98,-2.42
670.62,-2.33
677.32,-2.27
684.10,-2.21
690.94,-2.15
697.85,-2.08
704.83,-2.00
711.87,-1.93
718.99,-1.84
726.18,-1.75
733.44,-1.66
740.78,-1.58
748.19,-1.52
755.67,-1.47
763.23,-1.43
770.86,-1.41
778.57,-1.39
786.35,-1.37
794.22,-1.33
802.16,-1.28
810.18,-1.24
818.28,-1.20
826.46,-1.18
834.73,-1.15
843.08,-1.12
851.51,-1.08
860.02,-1.02
868.62,-0.97
877.31,-0.91
886.08,-0.86
894.94,-0.81
903.89,-0.78
912.93,-0.77
922.06,-0.77
931.28,-0.76
940.59,-0.73
950.00,-0.65
959.50,-0.52
969.09,-0.37
978.78,-0.24
988.57,-0.12
998.46,-0.02
1008.44,0.11
1018.53,0.25
1028.71,0.38
1039.00,0.49
1049.39,0.58
1059.88,0.65
1070.48,0.71
1081.19,0.76
1092.00,0.81
1102.92,0.79
1113.95,0.67
1125.09,0.47
1136.34,0.23
1147.70,0.08
1159.18,0.07
1170.77,0.08
1182.48,0.17
1194.30,0.29
1206.25,0.40
1218.31,0.49
1230.49,0.52
1242.80,0.54
1255.22,0.44
1267.78,0.28
1280.45,0.07
1293.26,-0.03
1306.19,-0.14
1319.25,-0.21
1332.45,-0.23
1345.77,-0.23
1359.23,-0.18
1372.82,-0.06
1386.55,0.00
1400.41,0.00
1414.42,-0.08
1428.56,-0.17
1442.85,-0.29
1457.28,-0.41
1471.85,-0.53
1486.57,-0.65
1501.43,-0.76
1516.45,-0.79
1531.61,-0.81
1546.93,-0.82
1562.40,-0.82
1578.02,-0.81
1593.80,-0.78
1609.74,-0.73
1625.84,-0.67
1642.10,-0.58
1658.52,-0.50
1675.10,-0.43
1691.85,-0.44
1708.77,-0.46
1725.86,-0.49
1743.12,-0.47
1760.55,-0.47
1778.15,-0.50
1795.94,-0.61
1813.90,-0.76
1832.03,-0.90
1850.36,-1.02
1868.86,-0.97
1887.55,-0.84
1906.42,-0.65
1925.49,-0.43
1944.74,-0.18
1964.19,0.02
1983.83,0.10
2003.67,0.08
2023.71,-0.00
2043.94,-0.01
2064.38,0.03
2085.03,0.17
2105.88,0.35
2126.94,0.53
2148.20,0.61
2169.69,0.63
2191.38,0.66
2213.30,0.75
2235.43,0.87
2257.78,1.05
2280.36,1.25
2303.17,1.47
2326.20,1.72
2349.46,2.00
2372.95,2.28
2396.68,2.55
2420.65,2.84
2444.86,3.11
2469.31,3.37
2494.00,3.61
2518.94,3.82
2544.13,3.99
2569.57,4.10
2595.27,4.29
2621.22,4.55
2647.43,4.93
2673.90,5.22
2700.64,5.44
2727.65,5.53
2754.93,5.59
2782.48,5.60
2810.30,5.59
2838.40,5.56
2866.79,5.68
2895.46,5.92
2924.41,6.31
2953.65,6.71
2983.19,6.98
3013.02,7.18
3043.15,7.30
3073.58,7.44
3104.32,7.55
3135.36,7.63
3166.72,7.63
3198.38,7.58
3230.37,7.41
3262.67,7.28
3295.30,7.22
3328.25,7.38
3361.53,7.46
3395.15,7.34
3429.10,6.95
3463.39,6.59
3498.03,6.35
3533.01,6.35
3568.34,6.51
3604.02,6.80
3640.06,7.07
3676.46,7.29
3713.22,7.45
3750.36,7.51
3787.86,7.58
3825.74,7.60
3864.00,7.35
3902.64,6.75
3941.66,6.09
3981.08,5.39
4020.89,4.82
4061.10,4.39
4101.71,4.55
4142.73,4.94
4184.15,5.48
4226.00,5.67
4268.26,5.68
4310.94,5.48
4354.05,5.26
4397.59,5.02
4441.56,4.74
4485.98,4.07
4530.84,3.24
4576.15,2.55
4621.91,2.05
4668.13,1.92
4714.81,1.78
4761.96,1.61
4809.58,1.36
4857.67,1.23
4906.25,1.21
4955.31,1.16
5004.87,0.99
5054.91,0.70
5105.46,0.53
5156.52,0.50
5208.08,0.64
5260.16,0.71
5312.77,0.79
5365.89,0.91
5419.55,1.10
5473.75,1.24
5528.49,1.28
5583.77,1.26
5639.61,1.34
5696.00,1.47
5752.96,1.38
5810.49,1.29
5868.60,1.25
5927.28,1.21
5986.56,1.18
6046.42,1.08
6106.89,1.02
6167.96,1.01
6229.64,0.88
6291.93,0.59
6354.85,0.40
6418.40,0.21
6482.58,-0.03
6547.41,-0.32
6612.88,-0.58
6679.01,-0.67
6745.80,-0.73
6813.26,-0.74
6881.39,-0.64
6950.21,-0.48
7019.71,-0.29
7089.91,-0.11
7160.81,0.08
7232.41,0.35
7304.74,0.74
7377.79,1.34
7451.56,1.81
7526.08,2.07
7601.34,2.05
7677.35,1.57
7754.13,0.90
7831.67,-0.27
7909.98,-1.10
7989.08,-1.40
8068.98,-0.68
8149.67,0.29
8231.16,1.44
8313.47,2.73
8396.61,4.00
8480.57,5.04
8565.38,5.52
8651.03,5.54
8737.54,5.01
8824.92,3.72
8913.17,1.78
9002.30,-0.36
9092.32,-2.19
9183.25,-3.78
9275.08,-5.28
9367.83,-6.82
9461.51,-7.82
9556.12,-8.34
9651.68,-8.40
9748.20,-8.10
9845.68,-7.57
9944.14,-7.12
10043.58,-6.78
10144.02,-6.53
10245.46,-6.08
10347.91,-5.54
10451.39,-4.88
10555.91,-4.13
10661.46,-3.38
10768.08,-2.64
10875.76,-2.02
10984.52,-1.49
11094.36,-1.02
11205.31,-0.63
11317.36,-0.41
11430.53,-0.20
11544.84,0.14
11660.29,0.68
11776.89,1.34
11894.66,2.10
12013.60,2.85
12133.74,3.46
12255.08,3.88
12377.63,4.20
12501.41,4.52
12626.42,4.96
12752.68,5.41
12880.21,5.50
13009.01,5.37
13139.10,5.25
13270.49,4.29
13403.20,3.13
13537.23,1.85
13672.60,0.68
13809.33,-0.37
13947.42,-1.11
14086.90,-1.82
14227.77,-2.50
14370.04,-3.33
14513.74,-4.39
14658.88,-6.07
14805.47,-8.16
14953.52,-10.93
15103.06,-13.83
15254.09,-16.76
15406.63,-18.53
15560.70,-19.61
15716.30,-19.63
15873.47,-18.63
16032.20,-17.33
16192.52,-15.92
16354.45,-15.05
16517.99,-14.52
16683.17,-14.37
16850.01,-14.08
17018.51,-13.72
17188.69,-13.56
17360.58,-13.70
17534.18,-14.15
17709.53,-15.11
17886.62,-16.13
18065.49,-16.86
18246.14,-17.08
18428.60,-16.82
18612.89,-16.29
18799.02,-15.52
18987.01,-14.59
19176.88,-13.63
19368.65,-12.93
19562.33,-12.63
19757.96,-12.82
19955.54,-13.01
