frequency,raw
20.00,-0.38
20.20,-0.32
20.40,-0.26
20.61,-0.19
20.81,-0.13
21.02,-0.07
21.23,-0.01
21.44,0.05
21.66,0.12
21.87,0.19
22.09,0.26
22.31,0.33
22.54,0.39
22.76,0.46
22.99,0.52
23.22,0.57
23.45,0.62
23.69,0.66
23.92,0.71
24.16,0.75
24.40,0.80
24.65,0.84
24.89,0.89
25.14,0.94
25.39,0.99
25.65,1.04
25.91,1.09
26.16,1.14
26.43,1.19
26.69,1.23
26.96,1.28
27.23,1.33
27.50,1.37
27.77,1.41
28.05,1.46
28.33,1.51
28.62,1.57
28.90,1.63
29.19,1.68
29.48,1.74
29.78,1.79
30.08,1.83
30.38,1.86
30.68,1.90
30.99,1.94
31.30,1.98
31.61,2.02
31.93,2.06
32.24,2.09
32.57,2.12
32.89,2.15
33.22,2.18
33.55,2.21
33.89,2.24
34.23,2.27
34.57,2.29
34.92,2.31
35.27,2.33
35.62,2.36
35.97,2.39
36.33,2.43
36.70,2.46
37.06,2.48
37.43,2.50
37.81,2.52
38.19,2.54
38.57,2.56
38.95,2.58
39.34,2.61
39.74,2.63
40.14,2.64
40.54,2.66
40.94,2.67
41.35,2.68
41.76,2.69
42.18,2.70
42.60,2.71
43.03,2.72
43.46,2.73
43.90,2.74
44.33,2.75
44.78,2.75
45.23,2.76
45.68,2.76
46.13,2.77
46.60,2.76
47.06,2.74
47.53,2.72
48.01,2.72
48.49,2.73
48.97,2.72
49.46,2.71
49.96,2.66
50.46,2.63
50.96,2.60
51.47,2.59
51.99,2.55
52.51,2.51
53.03,2.47
53.56,2.48
54.10,2.49
54.64,2.48
55.18,2.46
55.74,2.44
56.29,2.41
56.86,2.40
57.42,2.38
58.00,2.37
58.58,2.35
59.16,2.33
59.76,2.32
60.35,2.30
60.96,2.28
61.57,2.26
62.18,2.24
62.80,2.20
63.43,2.17
64.07,2.15
64.71,2.13
65.35,2.11
66.01,2.09
66.67,2.07
67.33,2.05
68.01,2.02
68.69,2.00
69.37,1.97
70.07,1.94
70.77,1.92
71.48,1.91
72.19,1.89
72.91,1.85
73.64,1.83
74.38,1.81
75.12,1.79
75.87,1.74
76.63,1.71
77.40,1.69
78.17,1.65
78.95,1.61
79.74,1.58
80.54,1.55
81.35,1.52
82.16,1.49
82.98,1.45
83.81,1.40
84.65,1.38
85.50,1.34
86.35,1.30
87.22,1.26
88.09,1.22
88.97,1.18
89.86,1.15
90.76,1.12
91.66,1.06
92.58,1.00
93.51,0.96
94.44,0.91
95.39,0.88
96.34,0.87
97.30,0.84
98.28,0.81
99.26,0.76
100.25,0.69
101.25,0.66
102.27,0.61
103.29,0.56
104.32,0.51
105.37,0.46
106.42,0.42
107.48,0.40
108.56,0.34
109.64,0.30
110.74,0.27
111.85,0.20
112.97,0.14
114.10,0.10
115.24,0.09
116.39,0.07
117.55,0.07
118.73,0.03
119.92,-0.05
121.12,-0.10
122.33,-0.13
123.55,-0.17
124.79,-0.19
126.03,-0.23
127.29,-0.25
128.57,-0.25
129.85,-0.25
131.15,-0.25
132.46,-0.26
133.79,-0.28
135.12,-0.31
136.48,-0.34
137.84,-0.37
139.22,-0.37
140.61,-0.39
142.02,-0.41
143.44,-0.44
144.87,-0.47
146.32,-0.50
147.78,-0.53
149.26,-0.57
150.75,-0.61
152.26,-0.65
153.78,-0.69
155.32,-0.72
156.88,-0.76
158.44,-0.80
160.03,-0.84
161.63,-0.87
163.24,-0.90
164.88,-0.95
166.53,-0.98
168.19,-1.02
169.87,-1.09
171.57,-1.11
173.29,-1.16
175.02,-1.24
176.77,-1.28
178.54,-1.32
180.32,-1.36
182.13,-1.37
183.95,-1.41
185.79,-1.46
187.65,-1.51
189.52,-1.55
191.42,-1.59
193.33,-1.63
195.27,-1.69
197.22,-1.70
199.19,-1.74
201.18,-1.80
203.19,-1.86
205.23,-1.89
207.28,-1.93
209.35,-1.96
211.44,-1.96
213.56,-2.00
215.69,-2.03
217.85,-2.05
220.03,-2.09
222.23,-2.12
224.45,-2.14
226.70,-2.16
228.96,-2.19
231.25,-2.23
233.57,-2.26
235.90,-2.28
238.26,-2.31
240.64,-2.33
243.05,-2.35
245.48,-2.36
247.93,-2.39
250.41,-2.41
252.92,-2.42
255.45,-2.43
258.00,-2.44
260.58,-2.49
263.19,-2.53
265.82,-2.54
268.48,-2.55
271.16,-2.56
273.87,-2.60
276.61,-2.63
279.38,-2.62
282.17,-2.63
284.99,-2.64
287.84,-2.67
290.72,-2.70
293.63,-2.72
296.57,-2.72
299.53,-2.72
302.53,-2.75
305.55,-2.77
308.61,-2.75
311.69,-2.74
314.81,-2.77
317.96,-2.83
321.14,-2.87
324.35,-2.86
327.59,-2.86
330.87,-2.86
334.18,-2.87
337.52,-2.90
340.90,-2.91
344.30,-2.90
347.75,-2.90
351.23,-2.91
354.74,-2.93
358.28,-2.90
361.87,-2.88
365.49,-2.88
369.14,-2.93
372.83,-2.95
376.56,-2.94
380.33,-2.91
384.13,-2.93
387.97,-2.96
391.85,-2.92
395.77,-2.89
399.73,-2.91
403.72,-2.88
407.76,-2.87
411.84,-2.89
415.96,-2.87
420.12,-2.85
424.32,-2.82
428.56,-2.81
432.85,-2.81
437.18,-2.81
441.55,-2.79
445.96,-2.78
450.42,-2.78
454.93,-2.78
459.48,-2.77
464.07,-2.76
468.71,-2.74
473.40,-2.72
478.13,-2.71
482.91,-2.69
487.74,-2.67
492.62,-2.67
497.55,-2.66
502.52,-2.64
507.55,-2.61
512.62,-2.60
517.75,-2.59
522.93,-2.56
528.16,-2.54
533.44,-2.52
538.77,-2.49
544.16,-2.47
549.60,-2.45
555.10,-2.42
560.65,-2.38
566.25,-2.36
571.92,-2.34
577.64,-2.34
583.41,-2.32
589.25,-2.29
595.14,-2.24
601.09,-2.20
607.10,-2.17
613.17,-2.14
619.30,-2.12
625.50,-2.09
631.75,-2.06
638.07,-2.02
644.45,-1.98
650.89,-1.95
657.40,-1.91
663.98,-1.89
670.62,-1.87
677.32,-1.80
684.10,-1.76
690.94,-1.72
697.85,-1.65
704.83,-1.62
711.87,-1.61
718.99,-1.57
726.18,-1.51
733.44,-1.46
740.78,-1.43
748.19,-1.39
755.67,-1.34
763.23,-1.28
770.86,-1.25
778.57,-1.20
786.35,-1.15
794.22,-1.10
802.16,-1.05
810.18,-1.01
818.28,-0.98
826.46,-0.95
834.73,-0.91
843.08,-0.88
851.51,-0.84
860.02,-0.81
868.62,-0.79
877.31,-0.76
886.08,-0.72
894.94,-0.68
903.89,-0.63
912.93,-0.58
922.06,-0.50
931.28,-0.44
940.59,-0.38
950.00,-0.31
959.50,-0.22
969.09,-0.14
978.78,-0.09
988.57,-0.06
998.46,-0.01
1008.44,0.04
1018.53,0.12
1028.71,0.22
1039.00,0.27
1049.39,0.32
1059.88,0.36
1070.48,0.39
1081.19,0.42
1092.00,0.47
1102.92,0.54
1113.95,0.55
1125.09,0.58
1136.34,0.63
1147.70,0.67
1159.18,0.70
1170.77,0.72
1182.48,0.80
1194.30,0.84
1206.25,0.88
1218.31,0.91
1230.49,0.96
1242.80,1.01
1255.22,1.03
1267.78,1.06
1280.45,1.18
1293.26,1.16
1306.19,1.14
1319.25,1.14
1332.45,1.07
1345.77,1.08
1359.23,1.20
1372.82,1.23
1386.55,1.31
1400.41,1.45
1414.42,1.54
1428.56,1.62
1442.85,1.70
1457.28,1.77
1471.85,1.82
1486.57,1.81
1501.43,1.78
1516.45,1.83
1531.61,1.85
1546.93,1.83
1562.40,1.77
1578.02,1.75
1593.80,1.90
1609.74,1.90
1625.84,1.81
1642.10,1.89
1658.52,1.92
1675.10,1.89
1691.85,1.84
1708.77,1.90
1725.86,2.03
1743.12,1.91
1760.55,1.88
1778.15,1.91
1795.94,1.96
1813.90,1.92
1832.03,1.86
1850.36,1.82
1868.86,1.87
1887.55,1.98
1906.42,2.16
1925.49,2.40
1944.74,2.59
1964.19,2.68
1983.83,2.56
2003.67,2.27
2023.71,2.28
2043.94,2.32
2064.38,2.41
2085.03,2.53
2105.88,2.62
2126.94,2.74
2148.20,2.90
2169.69,2.97
2191.38,2.99
2213.30,2.90
2235.43,2.77
2257.78,2.79
2280.36,2.88
2303.17,2.99
2326.20,3.02
2349.46,3.24
2372.95,3.36
2396.68,3.39
2420.65,3.40
2444.86,3.38
2469.31,3.33
2494.00,3.62
2518.94,3.60
2544.13,3.57
2569.57,3.91
2595.27,4.23
2621.22,4.52
2647.43,4.79
2673.90,4.99
2700.64,5.20
2727.65,5.42
2754.93,5.71
2782.48,5.91
2810.30,6.17
2838.40,6.55
2866.79,6.88
2895.46,7.19
2924.41,7.27
2953.65,7.32
2983.19,7.49
3013.02,7.78
3043.15,8.21
3073.58,8.55
3104.32,9.13
3135.36,9.30
3166.72,9.32
3198.38,9.28
3230.37,9.51
3262.67,9.75
3295.30,10.02
3328.25,10.19
3361.53,10.35
3395.15,10.52
3429.10,10.68
3463.39,10.84
3498.03,11.03
3533.01,11.14
3568.34,11.25
3604.02,11.34
3640.06,11.31
3676.46,11.27
3713.22,11.18
3750.36,11.05
3787.86,10.85
3825.74,10.65
3864.00,10.50
3902.64,10.23
3941.66,9.95
3981.08,9.66
4020.89,9.38
4061.10,9.12
4101.71,8.78
4142.73,8.43
4184.15,8.07
4226.00,7.77
4268.26,7.45
4310.94,7.09
4354.05,6.77
4397.59,6.43
4441.56,6.10
4485.98,5.81
4530.84,5.53
4576.15,5.25
4621.91,4.96
4668.13,4.73
4714.81,4.51
4761.96,4.29
4809.58,4.09
4857.67,3.93
4906.25,3.79
4955.31,3.65
5004.87,3.51
5054.91,3.49
5105.46,3.45
5156.52,3.41
5208.08,3.42
5260.16,3.49
5312.77,3.57
5365.89,3.64
5419.55,3.79
5473.75,3.98
5528.49,4.22
5583.77,4.51
5639.61,4.85
5696.00,5.21
5752.96,5.65
5810.49,6.10
5868.60,6.58
5927.28,7.05
5986.56,7.51
6046.42,7.91
6106.89,8.23
6167.96,8.44
6229.64,8.50
6291.93,8.41
6354.85,8.10
6418.40,7.72
6482.58,7.24
6547.41,6.69
6612.88,6.12
6679.01,5.54
6745.80,4.95
6813.26,4.36
6881.39,3.82
6950.21,3.26
7019.71,2.72
7089.91,2.24
7160.81,1.79
7232.41,1.38
7304.74,0.99
7377.79,0.62
7451.56,0.32
7526.08,0.07
7601.34,-0.16
7677.35,-0.30
7754.13,-0.42
7831.67,-0.39
7909.98,-0.33
7989.08,-0.21
8068.98,0.13
8149.67,0.56
8231.16,1.08
8313.47,1.81
8396.61,2.67
8480.57,3.79
8565.38,5.08
8651.03,6.11
8737.54,6.57
8824.92,5.16
8913.17,2.65
9002.30,-0.19
9092.32,-2.89
9183.25,-5.25
9275.08,-7.39
9367.83,-9.30
9461.51,-11.07
9556.12,-13.06
9651.68,-14.64
9748.20,-15.08
9845.68,-14.54
9944.14,-13.19
10043.58,-11.43
10144.02,-9.72
10245.46,-8.13
10347.91,-6.58
10451.39,-5.09
10555.91,-3.90
10661.46,-3.27
10768.08,-3.20
10875.76,-3.93
10984.52,-4.75
11094.36,-5.52
11205.31,-6.13
11317.36,-6.45
11430.53,-6.71
11544.84,-6.78
11660.29,-6.67
11776.89,-6.37
11894.66,-5.85
12013.60,-5.31
12133.74,-5.11
12255.08,-5.24
12377.63,-5.52
12501.41,-5.23
12626.42,-4.07
12752.68,-2.53
12880.21,-2.23
13009.01,-2.74
13139.10,-3.25
13270.49,-4.80
13403.20,-6.27
13537.23,-7.28
13672.60,-8.05
13809.33,-8.63
13947.42,-9.25
14086.90,-9.92
14227.77,-10.63
14370.04,-11.40
14513.74,-12.05
14658.88,-11.05
14805.47,-10.14
14953.52,-9.36
15103.06,-9.46
15254.09,-9.97
15406.63,-10.88
15560.70,-11.64
15716.30,-12.16
15873.47,-12.43
16032.20,-12.67
16192.52,-13.04
16354.45,-12.63
16517.99,-11.72
16683.17,-10.21
16850.01,-9.35
17018.51,-9.03
17188.69,-9.40
17360.58,-10.07
17534.18,-10.96
17709.53,-12.07
17886.62,-13.14
18065.49,-14.18
18246.14,-15.18
18428.60,-15.67
18612.89,-15.84
18799.02,-15.73
18987.01,-15.44
19176.88,-14.61
19368.65,-14.09
19562.33,-13.77
19757.96,-13.37
19955.54,-12.96
