frequency,raw
20.00,-5.17
20.20,-5.05
20.40,-4.94
20.61,-4.83
20.81,-4.73
21.02,-4.63
21.23,-4.54
21.44,-4.46
21.66,-4.39
21.87,-4.33
22.09,-4.28
22.31,-4.24
22.54,-4.21
22.76,-4.19
22.99,-4.18
23.22,-4.16
23.45,-4.15
23.69,-4.14
23.92,-4.12
24.16,-4.10
24.40,-4.08
24.65,-4.07
24.89,-4.06
25.14,-4.06
25.39,-4.06
25.65,-4.05
25.91,-4.04
26.16,-4.03
26.43,-3.99
26.69,-3.94
26.96,-3.88
27.23,-3.80
27.50,-3.72
27.77,-3.63
28.05,-3.55
28.33,-3.47
28.62,-3.39
28.90,-3.31
29.19,-3.25
29.48,-3.19
29.78,-3.13
30.08,-3.08
30.38,-3.04
30.68,-3.00
30.99,-2.97
31.30,-2.94
31.61,-2.92
31.93,-2.90
32.24,-2.88
32.57,-2.86
32.89,-2.84
33.22,-2.82
33.55,-2.80
33.89,-2.78
34.23,-2.76
34.57,-2.73
34.92,-2.69
35.27,-2.64
35.62,-2.59
35.97,-2.54
36.33,-2.49
36.70,-2.44
37.06,-2.39
37.43,-2.34
37.81,-2.29
38.19,-2.24
38.57,-2.19
38.95,-2.16
39.34,-2.13
39.74,-2.10
40.14,-2.07
40.54,-2.04
40.94,-2.01
41.35,-1.98
41.76,-1.95
42.18,-1.92
42.60,-1.90
43.03,-1.87
43.46,-1.84
43.90,-1.81
44.33,-1.78
44.78,-1.75
45.23,-1.71
45.68,-1.68
46.13,-1.65
46.60,-1.62
47.06,-1.59
47.53,-1.57
48.01,-1.54
48.49,-1.52
48.97,-1.50
49.46,-1.47
49.96,-1.45
50.46,-1.43
50.96,-1.41
51.47,-1.39
51.99,-1.37
52.51,-1.35
53.03,-1.32
53.56,-1.30
54.10,-1.28
54.64,-1.26
55.18,-1.24
55.74,-1.23
56.29,-1.21
56.86,-1.20
57.42,-1.18
58.00,-1.17
58.58,-1.15
59.16,-1.13
59.76,-1.12
60.35,-1.10
60.96,-1.08
61.57,-1.07
62.18,-1.05
62.80,-1.04
63.43,-1.03
64.07,-1.02
64.71,-1.00
65.35,-0.99
66.01,-0.98
66.67,-0.97
67.33,-0.96
68.01,-0.94
68.69,-0.93
69.37,-0.92
70.07,-0.91
70.77,-0.90
71.48,-0.89
72.19,-0.88
72.91,-0.88
73.64,-0.87
74.38,-0.86
75.12,-0.85
75.87,-0.85
76.63,-0.84
77.40,-0.84
78.17,-0.83
78.95,-0.83
79.74,-0.82
80.54,-0.82
81.35,-0.82
82.16,-0.81
82.98,-0.81
83.81,-0.80
84.65,-0.80
85.50,-0.79
86.35,-0.79
87.22,-0.78
88.09,-0.78
88.97,-0.77
89.86,-0.76
90.76,-0.75
91.66,-0.74
92.58,-0.73
93.51,-0.72
94.44,-0.71
95.39,-0.71
96.34,-0.70
97.30,-0.69
98.28,-0.69
99.26,-0.68
100.25,-0.68
101.25,-0.68
102.27,-0.68
103.29,-0.68
104.32,-0.68
105.37,-0.68
106.42,-0.69
107.48,-0.69
108.56,-0.70
109.64,-0.70
110.74,-0.71
111.85,-0.72
112.97,-0.73
114.10,-0.74
115.24,-0.75
116.39,-0.76
117.55,-0.77
118.73,-0.78
119.92,-0.79
121.12,-0.80
122.33,-0.81
123.55,-0.82
124.79,-0.83
126.03,-0.84
127.29,-0.85
128.57,-0.87
129.85,-0.88
131.15,-0.89
132.46,-0.91
133.79,-0.92
135.12,-0.94
136.48,-0.95
137.84,-0.96
139.22,-0.98
140.61,-0.99
142.02,-1.00
143.44,-1.02
144.87,-1.03
146.32,-1.05
147.78,-1.06
149.26,-1.08
150.75,-1.09
152.26,-1.11
153.78,-1.12
155.32,-1.14
156.88,-1.15
158.44,-1.17
160.03,-1.18
161.63,-1.20
163.24,-1.21
164.88,-1.23
166.53,-1.24
168.19,-1.26
169.87,-1.27
171.57,-1.29
173.29,-1.31
175.02,-1.33
176.77,-1.35
178.54,-1.37
180.32,-1.40
182.13,-1.42
183.95,-1.44
185.79,-1.46
187.65,-1.48
189.52,-1.50
191.42,-1.52
193.33,-1.54
195.27,-1.57
197.22,-1.59
199.19,-1.61
201.18,-1.63
203.19,-1.66
205.23,-1.68
207.28,-1.70
209.35,-1.73
211.44,-1.75
213.56,-1.77
215.69,-1.79
217.85,-1.81
220.03,-1.83
222.23,-1.85
224.45,-1.87
226.70,-1.89
228.96,-1.91
231.25,-1.93
233.57,-1.94
235.90,-1.96
238.26,-1.98
240.64,-2.00
243.05,-2.02
245.48,-2.04
247.93,-2.05
250.41,-2.07
252.92,-2.09
255.45,-2.10
258.00,-2.12
260.58,-2.14
263.19,-2.15
265.82,-2.17
268.48,-2.19
271.16,-2.20
273.87,-2.22
276.61,-2.24
279.38,-2.26
282.17,-2.28
284.99,-2.30
287.84,-2.32
290.72,-2.34
293.63,-2.36
296.57,-2.38
299.53,-2.40
302.53,-2.42
305.55,-2.44
308.61,-2.46
311.69,-2.48
314.81,-2.49
317.96,-2.51
321.14,-2.52
324.35,-2.54
327.59,-2.55
330.87,-2.57
334.18,-2.58
337.52,-2.59
340.90,-2.61
344.30,-2.62
347.75,-2.63
351.23,-2.64
354.74,-2.66
358.28,-2.67
361.87,-2.68
365.49,-2.69
369.14,-2.70
372.83,-2.71
376.56,-2.72
380.33,-2.73
384.13,-2.74
387.97,-2.74
391.85,-2.75
395.77,-2.75
399.73,-2.75
403.72,-2.76
407.76,-2.76
411.84,-2.76
415.96,-2.76
420.12,-2.77
424.32,-2.77
428.56,-2.77
432.85,-2.78
437.18,-2.78
441.55,-2.79
445.96,-2.80
450.42,-2.80
454.93,-2.80
459.48,-2.80
464.07,-2.80
468.71,-2.80
473.40,-2.80
478.13,-2.80
482.91,-2.79
487.74,-2.79
492.62,-2.79
497.55,-2.79
502.52,-2.78
507.55,-2.78
512.62,-2.77
517.75,-2.76
522.93,-2.75
528.16,-2.74
533.44,-2.73
538.77,-2.72
544.16,-2.70
549.60,-2.69
555.10,-2.68
560.65,-2.66
566.25,-2.64
571.92,-2.63
577.64,-2.61
583.41,-2.60
589.25,-2.58
595.14,-2.57
601.09,-2.55
607.10,-2.53
613.17,-2.51
619.30,-2.49
625.50,-2.46
631.75,-2.44
638.07,-2.41
644.45,-2.38
650.89,-2.35
657.40,-2.31
663.98,-2.28
670.62,-2.25
677.32,-2.21
684.10,-2.17
690.94,-2.14
697.85,-2.10
704.83,-2.06
711.87,-2.02
718.99,-1.98
726.18,-1.94
733.44,-1.89
740.78,-1.85
748.19,-1.80
755.67,-1.75
763.23,-1.70
770.86,-1.65
778.57,-1.59
786.35,-1.54
794.22,-1.48
802.16,-1.42
810.18,-1.36
818.28,-1.30
826.46,-1.24
834.73,-1.18
843.08,-1.12
851.51,-1.06
860.02,-1.00
868.62,-0.93
877.31,-0.87
886.08,-0.81
894.94,-0.75
903.89,-0.69
912.93,-0.64
922.06,-0.58
931.28,-0.52
940.59,-0.45
950.00,-0.38
959.50,-0.30
969.09,-0.23
978.78,-0.15
988.57,-0.08
998.46,-0.01
1008.44,0.06
1018.53,0.14
1028.71,0.21
1039.00,0.29
1049.39,0.36
1059.88,0.44
1070.48,0.52
1081.19,0.59
1092.00,0.67
1102.92,0.75
1113.95,0.84
1125.09,0.92
1136.34,1.00
1147.70,1.07
1159.18,1.14
1170.77,1.20
1182.48,1.25
1194.30,1.31
1206.25,1.37
1218.31,1.43
1230.49,1.50
1242.80,1.56
1255.22,1.62
1267.78,1.69
1280.45,1.75
1293.26,1.79
1306.19,1.83
1319.25,1.87
1332.45,1.90
1345.77,1.93
1359.23,1.95
1372.82,1.97
1386.55,1.99
1400.41,2.00
1414.42,2.03
1428.56,2.05
1442.85,2.06
1457.28,2.07
1471.85,2.07
1486.57,2.06
1501.43,2.06
1516.45,2.07
1531.61,2.09
1546.93,2.12
1562.40,2.14
1578.02,2.16
1593.80,2.16
1609.74,2.14
1625.84,2.11
1642.10,2.06
1658.52,1.99
1675.10,1.91
1691.85,1.79
1708.77,1.66
1725.86,1.53
1743.12,1.40
1760.55,1.29
1778.15,1.19
1795.94,1.12
1813.90,1.08
1832.03,1.04
1850.36,1.03
1868.86,1.06
1887.55,1.11
1906.42,1.19
1925.49,1.28
1944.74,1.40
1964.19,1.50
1983.83,1.59
2003.67,1.67
2023.71,1.73
2043.94,1.78
2064.38,1.83
2085.03,1.89
2105.88,1.95
2126.94,2.02
2148.20,2.10
2169.69,2.20
2191.38,2.30
2213.30,2.43
2235.43,2.57
2257.78,2.74
2280.36,2.92
2303.17,3.13
2326.20,3.33
2349.46,3.52
2372.95,3.71
2396.68,3.89
2420.65,4.06
2444.86,4.23
2469.31,4.41
2494.00,4.59
2518.94,4.78
2544.13,4.97
2569.57,5.18
2595.27,5.40
2621.22,5.63
2647.43,5.86
2673.90,6.09
2700.64,6.32
2727.65,6.53
2754.93,6.72
2782.48,6.89
2810.30,7.03
2838.40,7.16
2866.79,7.28
2895.46,7.39
2924.41,7.50
2953.65,7.63
2983.19,7.79
3013.02,7.97
3043.15,8.15
3073.58,8.33
3104.32,8.48
3135.36,8.59
3166.72,8.66
3198.38,8.72
3230.37,8.75
3262.67,8.77
3295.30,8.79
3328.25,8.79
3361.53,8.79
3395.15,8.78
3429.10,8.75
3463.39,8.70
3498.03,8.62
3533.01,8.52
3568.34,8.39
3604.02,8.25
3640.06,8.08
3676.46,7.87
3713.22,7.63
3750.36,7.35
3787.86,7.00
3825.74,6.64
3864.00,6.21
3902.64,5.72
3941.66,5.22
3981.08,4.73
4020.89,4.28
4061.10,3.88
4101.71,3.62
4142.73,3.41
4184.15,3.26
4226.00,3.17
4268.26,3.09
4310.94,3.04
4354.05,3.01
4397.59,2.98
4441.56,2.96
4485.98,2.94
4530.84,2.93
4576.15,2.94
4621.91,2.96
4668.13,2.99
4714.81,3.04
4761.96,3.10
4809.58,3.19
4857.67,3.31
4906.25,3.46
4955.31,3.64
5004.87,3.84
5054.91,4.06
5105.46,4.28
5156.52,4.51
5208.08,4.75
5260.16,5.00
5312.77,5.29
5365.89,5.65
5419.55,6.12
5473.75,6.69
5528.49,7.33
5583.77,7.98
5639.61,8.47
5696.00,8.88
5752.96,8.84
5810.49,8.66
5868.60,8.05
5927.28,7.27
5986.56,6.27
6046.42,5.14
6106.89,3.94
6167.96,2.73
6229.64,1.55
6291.93,0.44
6354.85,-0.51
6418.40,-1.35
6482.58,-1.99
6547.41,-2.43
6612.88,-2.75
6679.01,-2.89
6745.80,-2.95
6813.26,-2.95
6881.39,-2.93
6950.21,-2.93
7019.71,-2.95
7089.91,-3.03
7160.81,-3.21
7232.41,-3.46
7304.74,-3.79
7377.79,-4.25
7451.56,-4.80
7526.08,-5.44
7601.34,-6.16
7677.35,-6.89
7754.13,-7.60
7831.67,-8.01
7909.98,-8.24
7989.08,-8.18
8068.98,-7.84
8149.67,-7.40
8231.16,-6.84
8313.47,-6.23
8396.61,-5.62
8480.57,-5.04
8565.38,-4.50
8651.03,-3.98
8737.54,-3.51
8824.92,-3.11
8913.17,-2.86
9002.30,-2.69
9092.32,-2.89
9183.25,-3.42
9275.08,-4.22
9367.83,-5.38
9461.51,-6.87
9556.12,-8.48
9651.68,-9.91
9748.20,-10.90
9845.68,-10.41
9944.14,-9.23
10043.58,-7.60
10144.02,-5.86
10245.46,-4.23
10347.91,-2.69
10451.39,-1.26
10555.91,-0.04
10661.46,0.99
10768.08,1.81
10875.76,2.31
10984.52,2.46
11094.36,2.39
11205.31,2.01
11317.36,1.27
11430.53,0.36
11544.84,-0.86
11660.29,-2.30
11776.89,-3.84
11894.66,-5.37
12013.60,-6.87
12133.74,-7.69
12255.08,-7.52
12377.63,-6.69
12501.41,-5.58
12626.42,-4.47
12752.68,-3.56
12880.21,-3.00
13009.01,-2.63
13139.10,-2.26
13270.49,-2.42
13403.20,-2.73
13537.23,-3.37
13672.60,-4.11
13809.33,-4.96
13947.42,-5.82
14086.90,-6.53
14227.77,-7.15
14370.04,-7.60
14513.74,-7.84
14658.88,-7.82
14805.47,-7.71
14953.52,-7.42
15103.06,-7.08
15254.09,-6.72
15406.63,-6.56
15560.70,-6.49
15716.30,-6.55
15873.47,-6.44
16032.20,-6.21
16192.52,-5.71
16354.45,-5.29
16517.99,-4.96
16683.17,-5.02
16850.01,-5.31
17018.51,-5.78
17188.69,-6.40
17360.58,-7.06
17534.18,-7.76
17709.53,-8.52
17886.62,-9.31
18065.49,-10.07
18246.14,-10.79
18428.60,-11.32
18612.89,-11.74
18799.02,-12.08
18987.01,-12.33
19176.88,-12.69
19368.65,-13.24
19562.33,-13.96
19757.96,-14.80
19955.54,-15.63
