frequency,raw
20.00,6.95
20.20,7.00
20.40,7.06
20.61,7.11
20.81,7.16
21.02,7.20
21.23,7.25
21.44,7.30
21.66,7.35
21.87,7.40
22.09,7.45
22.31,7.50
22.54,7.55
22.76,7.60
22.99,7.65
23.22,7.69
23.45,7.74
23.69,7.78
23.92,7.82
24.16,7.87
24.40,7.91
24.65,7.96
24.89,8.00
25.14,8.04
25.39,8.08
25.65,8.12
25.91,8.15
26.16,8.19
26.43,8.22
26.69,8.26
26.96,8.30
27.23,8.33
27.50,8.37
27.77,8.40
28.05,8.42
28.33,8.45
28.62,8.48
28.90,8.51
29.19,8.54
29.48,8.57
29.78,8.60
30.08,8.62
30.38,8.65
30.68,8.67
30.99,8.69
31.30,8.72
31.61,8.75
31.93,8.77
32.24,8.80
32.57,8.82
32.89,8.84
33.22,8.86
33.55,8.87
33.89,8.88
34.23,8.89
34.57,8.91
34.92,8.93
35.27,8.94
35.62,8.96
35.97,8.97
36.33,8.97
36.70,8.98
37.06,8.98
37.43,8.98
37.81,8.99
38.19,8.99
38.57,9.00
38.95,9.00
39.34,9.00
39.74,9.01
40.14,9.01
40.54,9.01
40.94,9.01
41.35,9.01
41.76,9.00
42.18,8.99
42.60,8.99
43.03,8.98
43.46,8.97
43.90,8.97
44.33,8.96
44.78,8.95
45.23,8.94
45.68,8.93
46.13,8.91
46.60,8.89
47.06,8.86
47.53,8.83
48.01,8.81
48.49,8.78
48.97,8.75
49.46,8.71
49.96,8.67
50.46,8.63
50.96,8.59
51.47,8.55
51.99,8.49
52.51,8.45
53.03,8.41
53.56,8.38
54.10,8.36
54.64,8.33
55.18,8.30
55.74,8.28
56.29,8.25
56.86,8.23
57.42,8.20
58.00,8.18
58.58,8.16
59.16,8.13
59.76,8.11
60.35,8.08
60.96,8.05
61.57,8.02
62.18,7.98
62.80,7.94
63.43,7.90
64.07,7.86
64.71,7.81
65.35,7.76
66.01,7.71
66.67,7.66
67.33,7.60
68.01,7.53
68.69,7.47
69.37,7.39
70.07,7.31
70.77,7.23
71.48,7.14
72.19,7.03
72.91,6.91
73.64,6.79
74.38,6.65
75.12,6.50
75.87,6.35
76.63,6.19
77.40,6.04
78.17,5.89
78.95,5.76
79.74,5.63
80.54,5.54
81.35,5.46
82.16,5.42
82.98,5.41
83.81,5.42
84.65,5.46
85.50,5.50
86.35,5.55
87.22,5.60
88.09,5.64
88.97,5.68
89.86,5.72
90.76,5.74
91.66,5.75
92.58,5.73
93.51,5.73
94.44,5.72
95.39,5.70
96.34,5.67
97.30,5.64
98.28,5.63
99.26,5.61
100.25,5.58
101.25,5.58
102.27,5.59
103.29,5.59
104.32,5.59
105.37,5.59
106.42,5.58
107.48,5.58
108.56,5.56
109.64,5.55
110.74,5.53
111.85,5.52
112.97,5.49
114.10,5.47
115.24,5.43
116.39,5.39
117.55,5.35
118.73,5.32
119.92,5.27
121.12,5.24
122.33,5.20
123.55,5.16
124.79,5.12
126.03,5.08
127.29,5.04
128.57,5.00
129.85,4.96
131.15,4.92
132.46,4.88
133.79,4.83
135.12,4.79
136.48,4.74
137.84,4.70
139.22,4.67
140.61,4.63
142.02,4.59
143.44,4.55
144.87,4.51
146.32,4.48
147.78,4.44
149.26,4.40
150.75,4.36
152.26,4.33
153.78,4.29
155.32,4.25
156.88,4.22
158.44,4.19
160.03,4.14
161.63,4.10
163.24,4.06
164.88,4.03
166.53,3.99
168.19,3.95
169.87,3.91
171.57,3.87
173.29,3.83
175.02,3.79
176.77,3.75
178.54,3.71
180.32,3.66
182.13,3.62
183.95,3.57
185.79,3.53
187.65,3.50
189.52,3.47
191.42,3.43
193.33,3.39
195.27,3.34
197.22,3.31
199.19,3.28
201.18,3.25
203.19,3.20
205.23,3.15
207.28,3.11
209.35,3.08
211.44,3.01
213.56,2.97
215.69,2.92
217.85,2.87
220.03,2.85
222.23,2.81
224.45,2.78
226.70,2.73
228.96,2.69
231.25,2.65
233.57,2.61
235.90,2.59
238.26,2.56
240.64,2.53
243.05,2.50
245.48,2.46
247.93,2.44
250.41,2.41
252.92,2.38
255.45,2.34
258.00,2.31
260.58,2.28
263.19,2.25
265.82,2.22
268.48,2.17
271.16,2.14
273.87,2.09
276.61,2.04
279.38,2.00
282.17,1.95
284.99,1.91
287.84,1.85
290.72,1.80
293.63,1.76
296.57,1.70
299.53,1.63
302.53,1.57
305.55,1.50
308.61,1.46
311.69,1.44
314.81,1.42
317.96,1.42
321.14,1.42
324.35,1.39
327.59,1.36
330.87,1.33
334.18,1.29
337.52,1.24
340.90,1.20
344.30,1.17
347.75,1.11
351.23,1.06
354.74,1.04
358.28,0.99
361.87,0.94
365.49,0.88
369.14,0.84
372.83,0.79
376.56,0.75
380.33,0.71
384.13,0.67
387.97,0.64
391.85,0.63
395.77,0.62
399.73,0.60
403.72,0.58
407.76,0.54
411.84,0.51
415.96,0.48
420.12,0.45
424.32,0.41
428.56,0.37
432.85,0.34
437.18,0.30
441.55,0.25
445.96,0.20
450.42,0.15
454.93,0.13
459.48,0.07
464.07,0.01
468.71,-0.04
473.40,-0.08
478.13,-0.13
482.91,-0.20
487.74,-0.25
492.62,-0.30
497.55,-0.35
502.52,-0.42
507.55,-0.52
512.62,-0.57
517.75,-0.60
522.93,-0.62
528.16,-0.64
533.44,-0.65
538.77,-0.67
544.16,-0.72
549.60,-0.77
555.10,-0.81
560.65,-0.85
566.25,-0.89
571.92,-0.93
577.64,-0.99
583.41,-1.03
589.25,-1.07
595.14,-1.12
601.09,-1.16
607.10,-1.21
613.17,-1.27
619.30,-1.33
625.50,-1.38
631.75,-1.41
638.07,-1.44
644.45,-1.48
650.89,-1.52
657.40,-1.56
663.98,-1.60
670.62,-1.66
677.32,-1.70
684.10,-1.73
690.94,-1.75
697.85,-1.82
704.83,-1.84
711.87,-1.83
718.99,-1.80
726.18,-1.72
733.44,-1.66
740.78,-1.62
748.19,-1.57
755.67,-1.49
763.23,-1.40
770.86,-1.34
778.57,-1.26
786.35,-1.17
794.22,-1.08
802.16,-0.98
810.18,-0.91
818.28,-0.84
826.46,-0.78
834.73,-0.70
843.08,-0.63
851.51,-0.57
860.02,-0.47
868.62,-0.43
877.31,-0.40
886.08,-0.35
894.94,-0.27
903.89,-0.21
912.93,-0.16
922.06,-0.11
931.28,-0.07
940.59,-0.05
950.00,-0.07
959.50,-0.00
969.09,0.06
978.78,0.09
988.57,0.06
998.46,0.00
1008.44,-0.02
1018.53,-0.03
1028.71,-0.05
1039.00,-0.07
1049.39,-0.12
1059.88,-0.20
1070.48,-0.30
1081.19,-0.34
1092.00,-0.34
1102.92,-0.36
1113.95,-0.46
1125.09,-0.53
1136.34,-0.53
1147.70,-0.56
1159.18,-0.62
1170.77,-0.70
1182.48,-0.64
1194.30,-0.62
1206.25,-0.61
1218.31,-0.57
1230.49,-0.66
1242.80,-0.74
1255.22,-0.76
1267.78,-0.85
1280.45,-0.89
1293.26,-0.91
1306.19,-0.93
1319.25,-0.91
1332.45,-0.86
1345.77,-0.84
1359.23,-0.86
1372.82,-0.63
1386.55,-0.51
1400.41,-0.51
1414.42,-0.40
1428.56,-0.29
1442.85,-0.21
1457.28,-0.10
1471.85,0.05
1486.57,0.16
1501.43,0.27
1516.45,0.40
1531.61,0.53
1546.93,0.67
1562.40,0.76
1578.02,0.84
1593.80,0.99
1609.74,1.08
1625.84,1.13
1642.10,1.18
1658.52,1.23
1675.10,1.26
1691.85,1.36
1708.77,1.43
1725.86,1.49
1743.12,1.52
1760.55,1.58
1778.15,1.64
1795.94,1.63
1813.90,1.76
1832.03,1.90
1850.36,1.99
1868.86,2.16
1887.55,2.37
1906.42,2.59
1925.49,2.81
1944.74,2.89
1964.19,3.01
1983.83,3.09
2003.67,3.12
2023.71,3.15
2043.94,3.33
2064.38,3.56
2085.03,3.71
2105.88,3.91
2126.94,4.10
2148.20,4.14
2169.69,4.10
2191.38,4.20
2213.30,4.36
2235.43,4.46
2257.78,4.72
2280.36,4.96
2303.17,5.15
2326.20,5.34
2349.46,5.52
2372.95,5.72
2396.68,5.96
2420.65,6.15
2444.86,6.40
2469.31,6.69
2494.00,7.02
2518.94,7.24
2544.13,7.44
2569.57,7.71
2595.27,8.04
2621.22,8.40
2647.43,8.64
2673.90,8.92
2700.64,9.20
2727.65,9.45
2754.93,9.64
2782.48,9.90
2810.30,10.17
2838.40,10.41
2866.79,10.70
2895.46,11.01
2924.41,11.18
2953.65,11.30
2983.19,11.26
3013.02,11.31
3043.15,11.45
3073.58,11.44
3104.32,11.49
3135.36,11.63
3166.72,11.62
3198.38,11.45
3230.37,11.31
3262.67,11.29
3295.30,11.45
3328.25,11.41
3361.53,11.36
3395.15,11.34
3429.10,11.17
3463.39,11.00
3498.03,10.87
3533.01,10.76
3568.34,10.74
3604.02,10.81
3640.06,10.82
3676.46,10.63
3713.22,10.43
3750.36,10.38
3787.86,10.70
3825.74,11.00
3864.00,11.14
3902.64,11.21
3941.66,11.27
3981.08,11.42
4020.89,11.61
4061.10,11.82
4101.71,12.07
4142.73,12.08
4184.15,11.95
4226.00,12.20
4268.26,12.44
4310.94,12.68
4354.05,12.79
4397.59,12.73
4441.56,12.59
4485.98,12.99
4530.84,13.24
4576.15,13.24
4621.91,13.10
4668.13,12.87
4714.81,12.74
4761.96,12.58
4809.58,12.26
4857.67,11.74
4906.25,10.99
4955.31,10.22
5004.87,9.45
5054.91,8.35
5105.46,7.03
5156.52,5.51
5208.08,4.03
5260.16,2.27
5312.77,0.23
5365.89,-2.42
5419.55,-4.59
5473.75,-6.75
5528.49,-8.91
5583.77,-10.03
5639.61,-9.74
5696.00,-8.86
5752.96,-8.67
5810.49,-8.49
5868.60,-8.13
5927.28,-7.81
5986.56,-7.52
6046.42,-7.34
6106.89,-7.01
6167.96,-6.49
6229.64,-6.03
6291.93,-5.65
6354.85,-5.29
6418.40,-4.95
6482.58,-4.66
6547.41,-4.37
6612.88,-4.07
6679.01,-3.73
6745.80,-3.50
6813.26,-3.33
6881.39,-3.17
6950.21,-3.03
7019.71,-3.00
7089.91,-3.19
7160.81,-3.29
7232.41,-3.50
7304.74,-3.87
7377.79,-4.32
7451.56,-4.75
7526.08,-5.16
7601.34,-5.56
7677.35,-6.03
7754.13,-6.51
7831.67,-6.88
7909.98,-7.20
7989.08,-7.45
8068.98,-7.37
8149.67,-7.20
8231.16,-6.96
8313.47,-6.47
8396.61,-5.91
8480.57,-5.35
8565.38,-4.86
8651.03,-4.38
8737.54,-3.89
8824.92,-3.50
8913.17,-3.36
9002.30,-3.31
9092.32,-3.64
9183.25,-4.06
9275.08,-4.47
9367.83,-4.74
9461.51,-4.94
9556.12,-5.03
9651.68,-5.02
9748.20,-4.98
9845.68,-5.04
9944.14,-5.07
10043.58,-5.05
10144.02,-5.00
10245.46,-4.99
10347.91,-4.99
10451.39,-4.97
10555.91,-4.79
10661.46,-4.59
10768.08,-4.33
10875.76,-3.89
10984.52,-3.50
11094.36,-3.21
11205.31,-3.14
11317.36,-3.54
11430.53,-4.31
11544.84,-6.20
11660.29,-9.11
11776.89,-12.43
11894.66,-11.83
12013.60,-10.18
12133.74,-8.27
12255.08,-6.30
12377.63,-4.41
12501.41,-2.62
12626.42,-0.99
12752.68,-0.06
12880.21,-0.12
13009.01,-0.67
13139.10,-1.23
13270.49,-1.90
13403.20,-2.38
13537.23,-2.55
13672.60,-2.57
13809.33,-2.46
13947.42,-2.12
14086.90,-1.81
14227.77,-1.51
14370.04,-1.62
14513.74,-2.16
14658.88,-2.96
14805.47,-3.76
14953.52,-4.54
15103.06,-5.55
15254.09,-6.66
15406.63,-7.67
15560.70,-8.38
15716.30,-8.62
15873.47,-7.96
16032.20,-7.09
16192.52,-6.40
16354.45,-5.81
16517.99,-5.26
16683.17,-4.58
16850.01,-4.18
17018.51,-4.02
17188.69,-4.41
17360.58,-5.54
17534.18,-7.18
17709.53,-9.16
17886.62,-10.23
18065.49,-10.99
18246.14,-11.72
18428.60,-12.67
18612.89,-12.79
18799.02,-11.99
18987.01,-10.06
19176.88,-8.71
19368.65,-7.24
19562.33,-5.87
19757.96,-4.94
19955.54,-4.01
