frequency,raw
20.00,10.18
20.20,10.17
20.40,10.17
20.61,10.16
20.81,10.15
21.02,10.14
21.23,10.12
21.44,10.11
21.66,10.09
21.87,10.07
22.09,10.06
22.31,10.05
22.54,10.04
22.76,10.03
22.99,10.02
23.22,10.02
23.45,10.02
23.69,10.01
23.92,10.01
24.16,10.01
24.40,10.02
24.65,10.04
24.89,10.06
25.14,10.08
25.39,10.11
25.65,10.14
25.91,10.17
26.16,10.19
26.43,10.21
26.69,10.24
26.96,10.26
27.23,10.29
27.50,10.32
27.77,10.35
28.05,10.38
28.33,10.41
28.62,10.44
28.90,10.47
29.19,10.49
29.48,10.51
29.78,10.51
30.08,10.52
30.38,10.52
30.68,10.53
30.99,10.55
31.30,10.56
31.61,10.58
31.93,10.59
32.24,10.59
32.57,10.60
32.89,10.60
33.22,10.60
33.55,10.61
33.89,10.62
34.23,10.63
34.57,10.64
34.92,10.66
35.27,10.67
35.62,10.68
35.97,10.68
36.33,10.67
36.70,10.65
37.06,10.63
37.43,10.61
37.81,10.59
38.19,10.58
38.57,10.56
38.95,10.53
39.34,10.50
39.74,10.46
40.14,10.41
40.54,10.37
40.94,10.33
41.35,10.29
41.76,10.24
42.18,10.19
42.60,10.13
43.03,10.07
43.46,10.00
43.90,9.94
44.33,9.88
44.78,9.81
45.23,9.74
45.68,9.66
46.13,9.58
46.60,9.49
47.06,9.41
47.53,9.32
48.01,9.21
48.49,9.11
48.97,9.00
49.46,8.91
49.96,8.81
50.46,8.69
50.96,8.56
51.47,8.43
51.99,8.31
52.51,8.19
53.03,8.06
53.56,7.92
54.10,7.79
54.64,7.65
55.18,7.51
55.74,7.37
56.29,7.24
56.86,7.11
57.42,6.98
58.00,6.85
58.58,6.72
59.16,6.59
59.76,6.47
60.35,6.34
60.96,6.22
61.57,6.11
62.18,6.01
62.80,5.93
63.43,5.84
64.07,5.76
64.71,5.69
65.35,5.62
66.01,5.57
66.67,5.54
67.33,5.50
68.01,5.47
68.69,5.41
69.37,5.36
70.07,5.33
70.77,5.32
71.48,5.28
72.19,5.22
72.91,5.18
73.64,5.15
74.38,5.12
75.12,5.09
75.87,5.05
76.63,5.00
77.40,4.95
78.17,4.88
78.95,4.80
79.74,4.72
80.54,4.69
81.35,4.64
82.16,4.48
82.98,4.38
83.81,4.34
84.65,4.26
85.50,4.13
86.35,4.00
87.22,3.94
88.09,3.85
88.97,3.73
89.86,3.61
90.76,3.52
91.66,3.41
92.58,3.29
93.51,3.17
94.44,3.06
95.39,2.94
96.34,2.79
97.30,2.68
98.28,2.60
99.26,2.51
100.25,2.39
101.25,2.28
102.27,2.17
103.29,2.08
104.32,2.01
105.37,1.94
106.42,1.85
107.48,1.71
108.56,1.62
109.64,1.52
110.74,1.42
111.85,1.37
112.97,1.29
114.10,1.22
115.24,1.18
116.39,1.13
117.55,1.07
118.73,0.99
119.92,0.92
121.12,0.86
122.33,0.83
123.55,0.82
124.79,0.82
126.03,0.80
127.29,0.75
128.57,0.70
129.85,0.68
131.15,0.65
132.46,0.62
133.79,0.57
135.12,0.60
136.48,0.64
137.84,0.64
139.22,0.68
140.61,0.70
142.02,0.69
143.44,0.68
144.87,0.69
146.32,0.74
147.78,0.80
149.26,0.83
150.75,0.82
152.26,0.78
153.78,0.80
155.32,0.83
156.88,0.86
158.44,0.90
160.03,0.95
161.63,0.98
163.24,1.01
164.88,1.06
166.53,1.09
168.19,1.11
169.87,1.14
171.57,1.18
173.29,1.21
175.02,1.22
176.77,1.28
178.54,1.33
180.32,1.37
182.13,1.40
183.95,1.39
185.79,1.40
187.65,1.44
189.52,1.46
191.42,1.49
193.33,1.56
195.27,1.65
197.22,1.61
199.19,1.59
201.18,1.61
203.19,1.65
205.23,1.71
207.28,1.75
209.35,1.78
211.44,1.77
213.56,1.75
215.69,1.78
217.85,1.82
220.03,1.87
222.23,1.89
224.45,1.92
226.70,1.94
228.96,1.98
231.25,2.02
233.57,2.05
235.90,2.07
238.26,2.10
240.64,2.14
243.05,2.18
245.48,2.23
247.93,2.27
250.41,2.31
252.92,2.33
255.45,2.38
258.00,2.44
260.58,2.46
263.19,2.46
265.82,2.45
268.48,2.48
271.16,2.52
273.87,2.53
276.61,2.54
279.38,2.59
282.17,2.58
284.99,2.55
287.84,2.61
290.72,2.65
293.63,2.69
296.57,2.69
299.53,2.66
302.53,2.69
305.55,2.69
308.61,2.68
311.69,2.66
314.81,2.58
317.96,2.58
321.14,2.55
324.35,2.48
327.59,2.41
330.87,2.34
334.18,2.28
337.52,2.18
340.90,2.08
344.30,1.98
347.75,1.90
351.23,1.80
354.74,1.66
358.28,1.56
361.87,1.45
365.49,1.31
369.14,1.20
372.83,1.06
376.56,0.95
380.33,0.87
384.13,0.75
387.97,0.62
391.85,0.54
395.77,0.45
399.73,0.32
403.72,0.22
407.76,0.13
411.84,0.06
415.96,-0.02
420.12,-0.11
424.32,-0.20
428.56,-0.31
432.85,-0.41
437.18,-0.50
441.55,-0.61
445.96,-0.69
450.42,-0.76
454.93,-0.86
459.48,-0.94
464.07,-1.03
468.71,-1.13
473.40,-1.23
478.13,-1.31
482.91,-1.38
487.74,-1.45
492.62,-1.53
497.55,-1.64
502.52,-1.73
507.55,-1.76
512.62,-1.83
517.75,-1.91
522.93,-1.98
528.16,-2.00
533.44,-2.07
538.77,-2.18
544.16,-2.26
549.60,-2.32
555.10,-2.35
560.65,-2.37
566.25,-2.46
571.92,-2.54
577.64,-2.59
583.41,-2.67
589.25,-2.77
595.14,-2.84
601.09,-2.91
607.10,-2.94
613.17,-2.98
619.30,-3.01
625.50,-3.05
631.75,-3.10
638.07,-3.10
644.45,-3.14
650.89,-3.18
657.40,-3.17
663.98,-3.20
670.62,-3.25
677.32,-3.19
684.10,-3.21
690.94,-3.28
697.85,-3.26
704.83,-3.28
711.87,-3.30
718.99,-3.24
726.18,-3.29
733.44,-3.29
740.78,-3.21
748.19,-3.20
755.67,-3.17
763.23,-3.14
770.86,-3.07
778.57,-3.03
786.35,-3.00
794.22,-2.94
802.16,-2.89
810.18,-2.88
818.28,-2.77
826.46,-2.65
834.73,-2.56
843.08,-2.50
851.51,-2.44
860.02,-2.31
868.62,-2.20
877.31,-2.08
886.08,-1.94
894.94,-1.82
903.89,-1.72
912.93,-1.65
922.06,-1.47
931.28,-1.29
940.59,-1.12
950.00,-0.96
959.50,-0.81
969.09,-0.60
978.78,-0.40
988.57,-0.22
998.46,-0.03
1008.44,0.14
1018.53,0.30
1028.71,0.44
1039.00,0.63
1049.39,0.79
1059.88,0.92
1070.48,1.13
1081.19,1.35
1092.00,1.56
1102.92,1.75
1113.95,1.95
1125.09,2.17
1136.34,2.40
1147.70,2.62
1159.18,2.84
1170.77,3.07
1182.48,3.27
1194.30,3.49
1206.25,3.71
1218.31,3.91
1230.49,4.12
1242.80,4.31
1255.22,4.45
1267.78,4.60
1280.45,4.73
1293.26,4.83
1306.19,4.93
1319.25,5.05
1332.45,5.13
1345.77,5.19
1359.23,5.23
1372.82,5.28
1386.55,5.32
1400.41,5.34
1414.42,5.37
1428.56,5.40
1442.85,5.43
1457.28,5.46
1471.85,5.48
1486.57,5.52
1501.43,5.55
1516.45,5.58
1531.61,5.62
1546.93,5.67
1562.40,5.74
1578.02,5.80
1593.80,5.83
1609.74,5.85
1625.84,5.88
1642.10,5.91
1658.52,5.93
1675.10,5.95
1691.85,6.00
1708.77,6.05
1725.86,6.10
1743.12,6.13
1760.55,6.17
1778.15,6.21
1795.94,6.23
1813.90,6.24
1832.03,6.24
1850.36,6.23
1868.86,6.24
1887.55,6.22
1906.42,6.20
1925.49,6.23
1944.74,6.30
1964.19,6.39
1983.83,6.51
2003.67,6.65
2023.71,6.77
2043.94,6.91
2064.38,7.06
2085.03,7.19
2105.88,7.31
2126.94,7.43
2148.20,7.53
2169.69,7.64
2191.38,7.74
2213.30,7.86
2235.43,7.99
2257.78,8.12
2280.36,8.24
2303.17,8.36
2326.20,8.49
2349.46,8.62
2372.95,8.76
2396.68,8.90
2420.65,9.04
2444.86,9.17
2469.31,9.29
2494.00,9.42
2518.94,9.54
2544.13,9.66
2569.57,9.78
2595.27,9.88
2621.22,9.98
2647.43,10.07
2673.90,10.16
2700.64,10.25
2727.65,10.31
2754.93,10.36
2782.48,10.41
2810.30,10.44
2838.40,10.44
2866.79,10.40
2895.46,10.34
2924.41,10.22
2953.65,10.09
2983.19,9.94
3013.02,9.79
3043.15,9.61
3073.58,9.45
3104.32,9.27
3135.36,9.10
3166.72,8.93
3198.38,8.78
3230.37,8.61
3262.67,8.43
3295.30,8.24
3328.25,8.03
3361.53,7.81
3395.15,7.56
3429.10,7.28
3463.39,6.95
3498.03,6.58
3533.01,6.16
3568.34,5.73
3604.02,5.30
3640.06,4.88
3676.46,4.46
3713.22,4.07
3750.36,3.73
3787.86,3.54
3825.74,3.36
3864.00,3.19
3902.64,3.00
3941.66,2.79
3981.08,2.58
4020.89,2.41
4061.10,2.29
4101.71,2.20
4142.73,2.10
4184.15,2.01
4226.00,1.97
4268.26,1.92
4310.94,1.85
4354.05,1.82
4397.59,1.85
4441.56,1.92
4485.98,2.01
4530.84,2.17
4576.15,2.39
4621.91,2.63
4668.13,2.98
4714.81,3.40
4761.96,3.85
4809.58,4.29
4857.67,4.67
4906.25,4.97
4955.31,5.20
5004.87,5.33
5054.91,5.37
5105.46,5.40
5156.52,5.41
5208.08,5.35
5260.16,5.24
5312.77,5.07
5365.89,4.74
5419.55,4.36
5473.75,4.00
5528.49,3.70
5583.77,3.44
5639.61,3.29
5696.00,3.18
5752.96,3.15
5810.49,3.14
5868.60,3.19
5927.28,3.27
5986.56,3.39
6046.42,3.51
6106.89,3.61
6167.96,3.70
6229.64,3.76
6291.93,3.71
6354.85,3.61
6418.40,3.46
6482.58,3.23
6547.41,2.90
6612.88,2.51
6679.01,2.02
6745.80,1.45
6813.26,0.84
6881.39,0.18
6950.21,-0.55
7019.71,-1.24
7089.91,-1.75
7160.81,-2.26
7232.41,-2.77
7304.74,-3.25
7377.79,-3.60
7451.56,-3.86
7526.08,-4.07
7601.34,-4.26
7677.35,-4.43
7754.13,-4.59
7831.67,-4.58
7909.98,-4.53
7989.08,-4.42
8068.98,-3.94
8149.67,-3.40
8231.16,-2.87
8313.47,-2.30
8396.61,-1.76
8480.57,-1.34
8565.38,-1.22
8651.03,-1.38
8737.54,-1.87
8824.92,-2.83
8913.17,-4.07
9002.30,-5.41
9092.32,-6.97
9183.25,-8.44
9275.08,-9.82
9367.83,-11.07
9461.51,-11.98
9556.12,-12.51
9651.68,-12.73
9748.20,-12.76
9845.68,-12.38
9944.14,-11.91
10043.58,-11.31
10144.02,-10.62
10245.46,-9.68
10347.91,-8.73
10451.39,-7.79
10555.91,-6.90
10661.46,-6.13
10768.08,-5.54
10875.76,-5.41
10984.52,-6.00
11094.36,-6.85
11205.31,-7.82
11317.36,-8.54
11430.53,-9.01
11544.84,-9.14
11660.29,-9.20
11776.89,-9.13
11894.66,-8.44
12013.60,-7.64
12133.74,-6.56
12255.08,-5.16
12377.63,-3.59
12501.41,-2.10
12626.42,-0.55
12752.68,0.85
12880.21,1.81
13009.01,2.53
13139.10,3.24
13270.49,3.21
13403.20,2.89
13537.23,2.27
13672.60,1.59
13809.33,0.87
13947.42,0.47
14086.90,0.21
14227.77,0.03
14370.04,0.06
14513.74,0.27
14658.88,0.26
14805.47,-0.03
14953.52,-0.78
15103.06,-2.03
15254.09,-3.51
15406.63,-5.10
15560.70,-6.47
15716.30,-7.52
15873.47,-7.94
16032.20,-8.19
16192.52,-8.49
16354.45,-8.30
16517.99,-7.77
16683.17,-6.51
16850.01,-4.80
17018.51,-2.93
17188.69,-2.18
17360.58,-2.80
17534.18,-8.79
17709.53,-33.64
17886.62,-38.12
18065.49,-38.44
18246.14,-42.05
18428.60,-41.66
18612.89,-42.17
18799.02,-41.85
18987.01,-37.42
19176.88,-42.12
19368.65,-44.05
19562.33,-44.63
19757.96,-46.84
19955.54,-49.06
