frequency,raw
20.00,6.91
20.20,6.89
20.40,6.88
20.61,6.86
20.81,6.84
21.02,6.82
21.23,6.79
21.44,6.76
21.66,6.72
21.87,6.69
22.09,6.67
22.31,6.65
22.54,6.65
22.76,6.65
22.99,6.67
23.22,6.69
23.45,6.71
23.69,6.72
23.92,6.71
24.16,6.69
24.40,6.66
24.65,6.63
24.89,6.60
25.14,6.57
25.39,6.56
25.65,6.56
25.91,6.57
26.16,6.59
26.43,6.61
26.69,6.62
26.96,6.64
27.23,6.64
27.50,6.63
27.77,6.63
28.05,6.62
28.33,6.63
28.62,6.64
28.90,6.66
29.19,6.68
29.48,6.70
29.78,6.71
30.08,6.71
30.38,6.70
30.68,6.69
30.99,6.70
31.30,6.72
31.61,6.74
31.93,6.76
32.24,6.76
32.57,6.74
32.89,6.71
33.22,6.68
33.55,6.66
33.89,6.67
34.23,6.69
34.57,6.70
34.92,6.66
35.27,6.60
35.62,6.53
35.97,6.47
36.33,6.46
36.70,6.49
37.06,6.52
37.43,6.53
37.81,6.52
38.19,6.49
38.57,6.47
38.95,6.45
39.34,6.43
39.74,6.40
40.14,6.37
40.54,6.34
40.94,6.32
41.35,6.30
41.76,6.27
42.18,6.22
42.60,6.18
43.03,6.16
43.46,6.17
43.90,6.16
44.33,6.14
44.78,6.09
45.23,6.04
45.68,6.00
46.13,5.97
46.60,5.93
47.06,5.89
47.53,5.84
48.01,5.81
48.49,5.77
48.97,5.72
49.46,5.66
49.96,5.61
50.46,5.56
50.96,5.52
51.47,5.48
51.99,5.43
52.51,5.38
53.03,5.33
53.56,5.30
54.10,5.28
54.64,5.26
55.18,5.24
55.74,5.21
56.29,5.19
56.86,5.17
57.42,5.16
58.00,5.15
58.58,5.16
59.16,5.17
59.76,5.17
60.35,5.17
60.96,5.17
61.57,5.17
62.18,5.15
62.80,5.17
63.43,5.21
64.07,5.27
64.71,5.29
65.35,5.33
66.01,5.38
66.67,5.44
67.33,5.51
68.01,5.60
68.69,5.68
69.37,5.76
70.07,5.84
70.77,5.95
71.48,6.05
72.19,6.15
72.91,6.26
73.64,6.37
74.38,6.48
75.12,6.58
75.87,6.69
76.63,6.79
77.40,6.88
78.17,6.98
78.95,7.06
79.74,7.12
80.54,7.20
81.35,7.28
82.16,7.32
82.98,7.37
83.81,7.41
84.65,7.42
85.50,7.44
86.35,7.47
87.22,7.49
88.09,7.51
88.97,7.53
89.86,7.56
90.76,7.57
91.66,7.59
92.58,7.63
93.51,7.66
94.44,7.69
95.39,7.71
96.34,7.72
97.30,7.75
98.28,7.76
99.26,7.76
100.25,7.76
101.25,7.75
102.27,7.75
103.29,7.74
104.32,7.72
105.37,7.69
106.42,7.65
107.48,7.61
108.56,7.57
109.64,7.51
110.74,7.45
111.85,7.41
112.97,7.32
114.10,7.22
115.24,7.14
116.39,7.09
117.55,7.00
118.73,6.87
119.92,6.75
121.12,6.63
122.33,6.52
123.55,6.42
124.79,6.31
126.03,6.19
127.29,6.05
128.57,5.92
129.85,5.79
131.15,5.66
132.46,5.52
133.79,5.37
135.12,5.22
136.48,5.07
137.84,4.92
139.22,4.77
140.61,4.61
142.02,4.45
143.44,4.29
144.87,4.13
146.32,3.95
147.78,3.76
149.26,3.58
150.75,3.41
152.26,3.23
153.78,3.06
155.32,2.88
156.88,2.70
158.44,2.54
160.03,2.39
161.63,2.25
163.24,2.11
164.88,1.96
166.53,1.83
168.19,1.70
169.87,1.59
171.57,1.49
173.29,1.37
175.02,1.24
176.77,1.12
178.54,0.99
180.32,0.86
182.13,0.73
183.95,0.60
185.79,0.46
187.65,0.32
189.52,0.19
191.42,0.05
193.33,-0.09
195.27,-0.24
197.22,-0.38
199.19,-0.49
201.18,-0.61
203.19,-0.74
205.23,-0.87
207.28,-0.96
209.35,-1.03
211.44,-1.12
213.56,-1.19
215.69,-1.27
217.85,-1.34
220.03,-1.38
222.23,-1.44
224.45,-1.49
226.70,-1.51
228.96,-1.55
231.25,-1.58
233.57,-1.59
235.90,-1.59
238.26,-1.61
240.64,-1.61
243.05,-1.60
245.48,-1.60
247.93,-1.62
250.41,-1.65
252.92,-1.65
255.45,-1.66
258.00,-1.67
260.58,-1.65
263.19,-1.63
265.82,-1.63
268.48,-1.64
271.16,-1.66
273.87,-1.66
276.61,-1.65
279.38,-1.68
282.17,-1.67
284.99,-1.65
287.84,-1.69
290.72,-1.71
293.63,-1.71
296.57,-1.71
299.53,-1.71
302.53,-1.73
305.55,-1.75
308.61,-1.78
311.69,-1.79
314.81,-1.81
317.96,-1.82
321.14,-1.83
324.35,-1.85
327.59,-1.87
330.87,-1.90
334.18,-1.94
337.52,-1.94
340.90,-1.95
344.30,-2.00
347.75,-2.04
351.23,-2.07
354.74,-2.11
358.28,-2.14
361.87,-2.18
365.49,-2.22
369.14,-2.23
372.83,-2.23
376.56,-2.24
380.33,-2.26
384.13,-2.29
387.97,-2.32
391.85,-2.39
395.77,-2.45
399.73,-2.53
403.72,-2.59
407.76,-2.67
411.84,-2.76
415.96,-2.87
420.12,-2.98
424.32,-3.11
428.56,-3.22
432.85,-3.34
437.18,-3.47
441.55,-3.64
445.96,-3.79
450.42,-3.94
454.93,-4.06
459.48,-4.19
464.07,-4.32
468.71,-4.43
473.40,-4.50
478.13,-4.57
482.91,-4.62
487.74,-4.65
492.62,-4.59
497.55,-4.56
502.52,-4.51
507.55,-4.43
512.62,-4.33
517.75,-4.24
522.93,-4.15
528.16,-4.04
533.44,-3.96
538.77,-3.88
544.16,-3.74
549.60,-3.70
555.10,-3.62
560.65,-3.53
566.25,-3.46
571.92,-3.39
577.64,-3.33
583.41,-3.29
589.25,-3.28
595.14,-3.24
601.09,-3.20
607.10,-3.13
613.17,-3.09
619.30,-3.05
625.50,-3.02
631.75,-2.98
638.07,-2.93
644.45,-2.89
650.89,-2.85
657.40,-2.81
663.98,-2.78
670.62,-2.75
677.32,-2.69
684.10,-2.65
690.94,-2.61
697.85,-2.52
704.83,-2.45
711.87,-2.40
718.99,-2.36
726.18,-2.28
733.44,-2.22
740.78,-2.18
748.19,-2.08
755.67,-2.00
763.23,-1.93
770.86,-1.86
778.57,-1.80
786.35,-1.74
794.22,-1.63
802.16,-1.52
810.18,-1.44
818.28,-1.36
826.46,-1.27
834.73,-1.16
843.08,-1.08
851.51,-1.01
860.02,-0.89
868.62,-0.81
877.31,-0.73
886.08,-0.64
894.94,-0.55
903.89,-0.48
912.93,-0.42
922.06,-0.35
931.28,-0.30
940.59,-0.25
950.00,-0.18
959.50,-0.12
969.09,-0.08
978.78,-0.04
988.57,-0.01
998.46,-0.01
1008.44,0.03
1018.53,0.05
1028.71,0.04
1039.00,0.03
1049.39,-0.00
1059.88,-0.05
1070.48,-0.10
1081.19,-0.16
1092.00,-0.22
1102.92,-0.29
1113.95,-0.39
1125.09,-0.49
1136.34,-0.58
1147.70,-0.69
1159.18,-0.79
1170.77,-0.88
1182.48,-1.03
1194.30,-1.16
1206.25,-1.29
1218.31,-1.39
1230.49,-1.52
1242.80,-1.66
1255.22,-1.77
1267.78,-1.90
1280.45,-2.06
1293.26,-2.21
1306.19,-2.36
1319.25,-2.55
1332.45,-2.73
1345.77,-2.92
1359.23,-3.13
1372.82,-3.28
1386.55,-3.46
1400.41,-3.67
1414.42,-3.82
1428.56,-3.97
1442.85,-4.10
1457.28,-4.22
1471.85,-4.34
1486.57,-4.36
1501.43,-4.36
1516.45,-4.33
1531.61,-4.29
1546.93,-4.24
1562.40,-4.13
1578.02,-3.98
1593.80,-3.78
1609.74,-3.58
1625.84,-3.39
1642.10,-3.16
1658.52,-2.94
1675.10,-2.73
1691.85,-2.54
1708.77,-2.33
1725.86,-2.11
1743.12,-1.94
1760.55,-1.74
1778.15,-1.53
1795.94,-1.37
1813.90,-1.19
1832.03,-1.01
1850.36,-0.85
1868.86,-0.66
1887.55,-0.49
1906.42,-0.34
1925.49,-0.22
1944.74,-0.05
1964.19,0.08
1983.83,0.23
2003.67,0.40
2023.71,0.53
2043.94,0.68
2064.38,0.85
2085.03,1.04
2105.88,1.23
2126.94,1.39
2148.20,1.53
2169.69,1.71
2191.38,1.85
2213.30,2.00
2235.43,2.17
2257.78,2.29
2280.36,2.43
2303.17,2.59
2326.20,2.72
2349.46,2.87
2372.95,3.00
2396.68,3.12
2420.65,3.26
2444.86,3.41
2469.31,3.55
2494.00,3.67
2518.94,3.80
2544.13,3.94
2569.57,4.09
2595.27,4.24
2621.22,4.39
2647.43,4.53
2673.90,4.65
2700.64,4.77
2727.65,4.89
2754.93,5.01
2782.48,5.12
2810.30,5.23
2838.40,5.34
2866.79,5.43
2895.46,5.51
2924.41,5.57
2953.65,5.63
2983.19,5.65
3013.02,5.66
3043.15,5.67
3073.58,5.63
3104.32,5.55
3135.36,5.45
3166.72,5.31
3198.38,5.15
3230.37,4.93
3262.67,4.70
3295.30,4.43
3328.25,4.13
3361.53,3.81
3395.15,3.48
3429.10,3.15
3463.39,2.82
3498.03,2.49
3533.01,2.14
3568.34,1.81
3604.02,1.50
3640.06,1.19
3676.46,0.93
3713.22,0.72
3750.36,0.56
3787.86,0.60
3825.74,0.66
3864.00,0.74
3902.64,0.35
3941.66,-0.13
3981.08,-0.66
4020.89,-1.13
4061.10,-1.56
4101.71,-2.69
4142.73,-3.90
4184.15,-5.10
4226.00,-5.72
4268.26,-6.07
4310.94,-6.04
4354.05,-5.31
4397.59,-4.27
4441.56,-3.02
4485.98,-1.48
4530.84,0.08
4576.15,1.57
4621.91,2.96
4668.13,4.03
4714.81,4.82
4761.96,5.46
4809.58,5.91
4857.67,6.28
4906.25,6.58
4955.31,6.91
5004.87,7.31
5054.91,7.88
5105.46,8.59
5156.52,9.45
5208.08,10.30
5260.16,10.97
5312.77,11.49
5365.89,11.74
5419.55,11.84
5473.75,11.82
5528.49,11.72
5583.77,11.56
5639.61,11.33
5696.00,11.07
5752.96,10.75
5810.49,10.41
5868.60,9.99
5927.28,9.60
5986.56,9.23
6046.42,8.84
6106.89,8.49
6167.96,8.21
6229.64,7.94
6291.93,7.66
6354.85,7.42
6418.40,7.16
6482.58,6.83
6547.41,6.40
6612.88,5.93
6679.01,5.43
6745.80,4.90
6813.26,4.33
6881.39,3.69
6950.21,3.00
7019.71,2.31
7089.91,1.68
7160.81,1.00
7232.41,0.35
7304.74,-0.27
7377.79,-0.96
7451.56,-1.65
7526.08,-2.43
7601.34,-3.38
7677.35,-4.63
7754.13,-6.03
7831.67,-8.39
7909.98,-11.48
7989.08,-15.76
8068.98,-15.31
8149.67,-13.71
8231.16,-11.41
8313.47,-10.19
8396.61,-9.39
8480.57,-8.97
8565.38,-8.44
8651.03,-7.94
8737.54,-7.54
8824.92,-7.34
8913.17,-7.22
9002.30,-7.12
9092.32,-7.02
9183.25,-6.78
9275.08,-6.52
9367.83,-6.35
9461.51,-7.11
9556.12,-8.97
9651.68,-11.75
9748.20,-15.06
9845.68,-17.98
9944.14,-20.72
10043.58,-22.67
10144.02,-23.73
10245.46,-22.66
10347.91,-20.59
10451.39,-17.49
10555.91,-14.06
10661.46,-11.20
10768.08,-8.79
10875.76,-6.53
10984.52,-3.79
11094.36,-2.32
11205.31,-3.98
11317.36,-6.37
11430.53,-8.28
11544.84,-8.91
11660.29,-8.47
11776.89,-7.78
11894.66,-6.96
12013.60,-6.17
12133.74,-6.87
12255.08,-8.96
12377.63,-11.60
12501.41,-12.13
12626.42,-9.26
12752.68,-6.16
12880.21,-3.94
13009.01,-2.27
13139.10,-0.59
13270.49,-0.78
13403.20,-1.55
13537.23,-3.26
13672.60,-4.74
13809.33,-5.96
13947.42,-6.59
14086.90,-7.16
14227.77,-7.69
14370.04,-7.99
14513.74,-7.97
14658.88,-7.41
14805.47,-6.98
14953.52,-6.77
15103.06,-7.90
15254.09,-9.67
15406.63,-12.87
15560.70,-15.69
15716.30,-17.92
15873.47,-19.17
16032.20,-20.01
16192.52,-20.31
16354.45,-20.34
16517.99,-20.36
16683.17,-21.48
16850.01,-21.97
17018.51,-21.81
17188.69,-19.71
17360.58,-18.87
17534.18,-18.55
17709.53,-17.56
17886.62,-17.48
18065.49,-18.09
18246.14,-19.48
18428.60,-21.30
18612.89,-22.34
18799.02,-22.33
18987.01,-20.83
19176.88,-19.19
19368.65,-18.24
19562.33,-17.55
19757.96,-16.47
19955.54,-15.39
