frequency,raw
20.00,5.92
20.20,5.92
20.40,5.93
20.61,5.93
20.81,5.92
21.02,5.91
21.23,5.90
21.44,5.88
21.66,5.85
21.87,5.83
22.09,5.80
22.31,5.78
22.54,5.75
22.76,5.72
22.99,5.69
23.22,5.65
23.45,5.61
23.69,5.57
23.92,5.52
24.16,5.47
24.40,5.42
24.65,5.37
24.89,5.32
25.14,5.27
25.39,5.22
25.65,5.17
25.91,5.13
26.16,5.09
26.43,5.05
26.69,5.01
26.96,4.97
27.23,4.93
27.50,4.88
27.77,4.84
28.05,4.80
28.33,4.76
28.62,4.71
28.90,4.67
29.19,4.63
29.48,4.59
29.78,4.55
30.08,4.52
30.38,4.47
30.68,4.43
30.99,4.38
31.30,4.32
31.61,4.26
31.93,4.20
32.24,4.15
32.57,4.09
32.89,4.04
33.22,3.99
33.55,3.94
33.89,3.88
34.23,3.82
34.57,3.77
34.92,3.72
35.27,3.68
35.62,3.64
35.97,3.60
36.33,3.56
36.70,3.51
37.06,3.45
37.43,3.40
37.81,3.36
38.19,3.32
38.57,3.28
38.95,3.23
39.34,3.17
39.74,3.12
40.14,3.05
40.54,3.00
40.94,2.95
41.35,2.90
41.76,2.86
42.18,2.81
42.60,2.75
43.03,2.70
43.46,2.64
43.90,2.59
44.33,2.54
44.78,2.49
45.23,2.44
45.68,2.39
46.13,2.34
46.60,2.29
47.06,2.25
47.53,2.22
48.01,2.17
48.49,2.11
48.97,2.04
49.46,1.99
49.96,1.95
50.46,1.92
50.96,1.88
51.47,1.84
51.99,1.80
52.51,1.76
53.03,1.72
53.56,1.68
54.10,1.64
54.64,1.60
55.18,1.57
55.74,1.52
56.29,1.49
56.86,1.45
57.42,1.41
58.00,1.38
58.58,1.35
59.16,1.32
59.76,1.29
60.35,1.26
60.96,1.22
61.57,1.19
62.18,1.15
62.80,1.12
63.43,1.08
64.07,1.05
64.71,1.00
65.35,0.96
66.01,0.92
66.67,0.89
67.33,0.85
68.01,0.81
68.69,0.77
69.37,0.74
70.07,0.70
70.77,0.65
71.48,0.61
72.19,0.56
72.91,0.52
73.64,0.47
74.38,0.43
75.12,0.38
75.87,0.34
76.63,0.29
77.40,0.23
78.17,0.19
78.95,0.15
79.74,0.10
80.54,0.05
81.35,0.01
82.16,-0.04
82.98,-0.08
83.81,-0.12
84.65,-0.16
85.50,-0.20
86.35,-0.25
87.22,-0.29
88.09,-0.33
88.97,-0.37
89.86,-0.41
90.76,-0.44
91.66,-0.49
92.58,-0.53
93.51,-0.56
94.44,-0.61
95.39,-0.65
96.34,-0.69
97.30,-0.73
98.28,-0.77
99.26,-0.80
100.25,-0.84
101.25,-0.88
102.27,-0.91
103.29,-0.95
104.32,-0.99
105.37,-1.02
106.42,-1.06
107.48,-1.09
108.56,-1.13
109.64,-1.17
110.74,-1.20
111.85,-1.23
112.97,-1.26
114.10,-1.29
115.24,-1.32
116.39,-1.36
117.55,-1.39
118.73,-1.43
119.92,-1.46
121.12,-1.49
122.33,-1.53
123.55,-1.56
124.79,-1.59
126.03,-1.62
127.29,-1.65
128.57,-1.68
129.85,-1.71
131.15,-1.74
132.46,-1.77
133.79,-1.81
135.12,-1.83
136.48,-1.86
137.84,-1.90
139.22,-1.93
140.61,-1.96
142.02,-1.98
143.44,-2.00
144.87,-2.02
146.32,-2.04
147.78,-2.06
149.26,-2.07
150.75,-2.09
152.26,-2.10
153.78,-2.12
155.32,-2.14
156.88,-2.15
158.44,-2.17
160.03,-2.19
161.63,-2.21
163.24,-2.23
164.88,-2.25
166.53,-2.27
168.19,-2.29
169.87,-2.30
171.57,-2.32
173.29,-2.34
175.02,-2.35
176.77,-2.37
178.54,-2.39
180.32,-2.40
182.13,-2.42
183.95,-2.43
185.79,-2.45
187.65,-2.46
189.52,-2.47
191.42,-2.47
193.33,-2.47
195.27,-2.47
197.22,-2.47
199.19,-2.47
201.18,-2.47
203.19,-2.46
205.23,-2.46
207.28,-2.45
209.35,-2.44
211.44,-2.43
213.56,-2.43
215.69,-2.42
217.85,-2.42
220.03,-2.40
222.23,-2.39
224.45,-2.38
226.70,-2.36
228.96,-2.36
231.25,-2.35
233.57,-2.34
235.90,-2.32
238.26,-2.31
240.64,-2.31
243.05,-2.30
245.48,-2.30
247.93,-2.29
250.41,-2.29
252.92,-2.27
255.45,-2.26
258.00,-2.25
260.58,-2.25
263.19,-2.25
265.82,-2.24
268.48,-2.23
271.16,-2.22
273.87,-2.20
276.61,-2.19
279.38,-2.17
282.17,-2.16
284.99,-2.15
287.84,-2.13
290.72,-2.11
293.63,-2.09
296.57,-2.08
299.53,-2.06
302.53,-2.05
305.55,-2.03
308.61,-2.01
311.69,-1.99
314.81,-1.97
317.96,-1.95
321.14,-1.92
324.35,-1.91
327.59,-1.89
330.87,-1.87
334.18,-1.85
337.52,-1.83
340.90,-1.81
344.30,-1.79
347.75,-1.77
351.23,-1.76
354.74,-1.74
358.28,-1.72
361.87,-1.71
365.49,-1.70
369.14,-1.70
372.83,-1.70
376.56,-1.69
380.33,-1.65
384.13,-1.62
387.97,-1.59
391.85,-1.57
395.77,-1.54
399.73,-1.52
403.72,-1.50
407.76,-1.47
411.84,-1.44
415.96,-1.40
420.12,-1.36
424.32,-1.32
428.56,-1.28
432.85,-1.25
437.18,-1.22
441.55,-1.18
445.96,-1.15
450.42,-1.13
454.93,-1.08
459.48,-1.06
464.07,-1.04
468.71,-1.01
473.40,-0.98
478.13,-0.95
482.91,-0.92
487.74,-0.89
492.62,-0.88
497.55,-0.85
502.52,-0.81
507.55,-0.78
512.62,-0.75
517.75,-0.73
522.93,-0.71
528.16,-0.68
533.44,-0.66
538.77,-0.64
544.16,-0.61
549.60,-0.60
555.10,-0.58
560.65,-0.55
566.25,-0.54
571.92,-0.52
577.64,-0.50
583.41,-0.48
589.25,-0.47
595.14,-0.45
601.09,-0.44
607.10,-0.44
613.17,-0.42
619.30,-0.41
625.50,-0.41
631.75,-0.40
638.07,-0.39
644.45,-0.38
650.89,-0.38
657.40,-0.37
663.98,-0.38
670.62,-0.38
677.32,-0.37
684.10,-0.37
690.94,-0.38
697.85,-0.39
704.83,-0.40
711.87,-0.41
718.99,-0.42
726.18,-0.42
733.44,-0.43
740.78,-0.45
748.19,-0.46
755.67,-0.47
763.23,-0.48
770.86,-0.49
778.57,-0.49
786.35,-0.50
794.22,-0.49
802.16,-0.47
810.18,-0.44
818.28,-0.41
826.46,-0.38
834.73,-0.35
843.08,-0.33
851.51,-0.31
860.02,-0.31
868.62,-0.29
877.31,-0.28
886.08,-0.27
894.94,-0.27
903.89,-0.26
912.93,-0.23
922.06,-0.23
931.28,-0.21
940.59,-0.19
950.00,-0.15
959.50,-0.12
969.09,-0.09
978.78,-0.06
988.57,-0.02
998.46,-0.01
1008.44,0.03
1018.53,0.07
1028.71,0.11
1039.00,0.13
1049.39,0.16
1059.88,0.21
1070.48,0.24
1081.19,0.27
1092.00,0.31
1102.92,0.35
1113.95,0.40
1125.09,0.45
1136.34,0.52
1147.70,0.58
1159.18,0.66
1170.77,0.74
1182.48,0.82
1194.30,0.90
1206.25,0.99
1218.31,1.07
1230.49,1.16
1242.80,1.24
1255.22,1.32
1267.78,1.39
1280.45,1.45
1293.26,1.51
1306.19,1.56
1319.25,1.61
1332.45,1.64
1345.77,1.67
1359.23,1.69
1372.82,1.68
1386.55,1.67
1400.41,1.65
1414.42,1.61
1428.56,1.57
1442.85,1.53
1457.28,1.46
1471.85,1.39
1486.57,1.30
1501.43,1.20
1516.45,1.09
1531.61,0.97
1546.93,0.85
1562.40,0.71
1578.02,0.57
1593.80,0.43
1609.74,0.28
1625.84,0.13
1642.10,-0.03
1658.52,-0.18
1675.10,-0.34
1691.85,-0.49
1708.77,-0.64
1725.86,-0.78
1743.12,-0.89
1760.55,-1.01
1778.15,-1.12
1795.94,-1.21
1813.90,-1.30
1832.03,-1.39
1850.36,-1.47
1868.86,-1.53
1887.55,-1.58
1906.42,-1.62
1925.49,-1.67
1944.74,-1.77
1964.19,-1.89
1983.83,-2.02
2003.67,-2.16
2023.71,-2.31
2043.94,-2.44
2064.38,-2.55
2085.03,-2.62
2105.88,-2.67
2126.94,-2.69
2148.20,-2.70
2169.69,-2.69
2191.38,-2.66
2213.30,-2.59
2235.43,-2.51
2257.78,-2.39
2280.36,-2.22
2303.17,-2.01
2326.20,-1.76
2349.46,-1.44
2372.95,-1.08
2396.68,-0.69
2420.65,-0.29
2444.86,0.11
2469.31,0.50
2494.00,0.88
2518.94,1.24
2544.13,1.59
2569.57,1.90
2595.27,2.19
2621.22,2.47
2647.43,2.76
2673.90,3.06
2700.64,3.37
2727.65,3.67
2754.93,3.95
2782.48,4.20
2810.30,4.42
2838.40,4.61
2866.79,4.77
2895.46,4.92
2924.41,5.08
2953.65,5.25
2983.19,5.41
3013.02,5.59
3043.15,5.79
3073.58,5.96
3104.32,6.13
3135.36,6.25
3166.72,6.30
3198.38,6.28
3230.37,6.14
3262.67,5.98
3295.30,5.82
3328.25,5.70
3361.53,5.60
3395.15,5.55
3429.10,5.54
3463.39,5.53
3498.03,5.54
3533.01,5.55
3568.34,5.56
3604.02,5.59
3640.06,5.64
3676.46,5.71
3713.22,5.79
3750.36,5.87
3787.86,5.97
3825.74,6.07
3864.00,6.15
3902.64,6.11
3941.66,6.06
3981.08,5.85
4020.89,5.48
4061.10,5.02
4101.71,4.41
4142.73,3.84
4184.15,3.32
4226.00,3.00
4268.26,2.77
4310.94,2.65
4354.05,2.69
4397.59,2.79
4441.56,2.93
4485.98,3.15
4530.84,3.42
4576.15,3.76
4621.91,4.14
4668.13,4.60
4714.81,5.21
4761.96,5.91
4809.58,6.76
4857.67,7.67
4906.25,8.58
4955.31,9.44
5004.87,10.18
5054.91,10.74
5105.46,11.15
5156.52,11.37
5208.08,11.30
5260.16,11.07
5312.77,10.77
5365.89,10.37
5419.55,9.88
5473.75,9.32
5528.49,8.72
5583.77,8.11
5639.61,7.56
5696.00,7.03
5752.96,6.58
5810.49,6.16
5868.60,5.76
5927.28,5.35
5986.56,4.94
6046.42,4.54
6106.89,4.16
6167.96,3.84
6229.64,3.67
6291.93,3.75
6354.85,4.21
6418.40,4.77
6482.58,5.45
6547.41,6.05
6612.88,6.57
6679.01,6.86
6745.80,6.89
6813.26,6.73
6881.39,6.35
6950.21,5.85
7019.71,5.32
7089.91,4.80
7160.81,4.30
7232.41,3.85
7304.74,3.46
7377.79,3.22
7451.56,3.17
7526.08,3.26
7601.34,3.51
7677.35,3.75
7754.13,4.00
7831.67,4.29
7909.98,4.60
7989.08,4.97
8068.98,5.39
8149.67,5.82
8231.16,6.28
8313.47,6.56
8396.61,6.68
8480.57,6.31
8565.38,5.30
8651.03,3.81
8737.54,1.82
8824.92,-0.54
8913.17,-2.71
9002.30,-4.76
9092.32,-6.20
9183.25,-7.46
9275.08,-8.50
9367.83,-9.13
9461.51,-8.60
9556.12,-7.59
9651.68,-6.45
9748.20,-5.50
9845.68,-5.13
9944.14,-5.00
10043.58,-5.14
10144.02,-5.49
10245.46,-5.88
10347.91,-6.22
10451.39,-6.51
10555.91,-6.63
10661.46,-6.60
10768.08,-6.40
10875.76,-5.93
10984.52,-5.12
11094.36,-4.20
11205.31,-3.29
11317.36,-2.77
11430.53,-2.27
11544.84,-1.75
11660.29,-1.15
11776.89,-0.53
11894.66,-0.20
12013.60,0.07
12133.74,-0.06
12255.08,-0.83
12377.63,-2.10
12501.41,-3.20
12626.42,-3.80
12752.68,-4.25
12880.21,-4.71
13009.01,-5.20
13139.10,-5.68
13270.49,-6.55
13403.20,-7.48
13537.23,-8.44
13672.60,-8.77
13809.33,-8.56
13947.42,-8.46
14086.90,-9.07
14227.77,-10.12
14370.04,-11.28
14513.74,-12.57
14658.88,-14.03
14805.47,-15.51
14953.52,-17.00
15103.06,-18.51
15254.09,-19.99
15406.63,-20.20
15560.70,-20.49
15716.30,-20.92
15873.47,-20.21
16032.20,-19.15
16192.52,-17.98
16354.45,-17.22
16517.99,-16.77
16683.17,-16.92
16850.01,-17.38
17018.51,-18.07
17188.69,-18.87
17360.58,-19.91
17534.18,-20.93
17709.53,-21.39
17886.62,-21.52
18065.49,-21.89
18246.14,-22.83
18428.60,-23.47
18612.89,-22.90
18799.02,-21.62
18987.01,-20.47
19176.88,-18.79
19368.65,-17.75
19562.33,-17.41
19757.96,-17.69
19955.54,-17.97
