frequency,raw
20.00,-0.73
20.20,-0.63
20.40,-0.53
20.61,-0.45
20.81,-0.38
21.02,-0.31
21.23,-0.24
21.44,-0.17
21.66,-0.09
21.87,-0.02
22.09,0.06
22.31,0.15
22.54,0.22
22.76,0.29
22.99,0.35
23.22,0.39
23.45,0.43
23.69,0.45
23.92,0.47
24.16,0.50
24.40,0.52
24.65,0.55
24.89,0.59
25.14,0.64
25.39,0.69
25.65,0.74
25.91,0.79
26.16,0.85
26.43,0.91
26.69,0.96
26.96,1.02
27.23,1.07
27.50,1.12
27.77,1.16
28.05,1.21
28.33,1.26
28.62,1.32
28.90,1.37
29.19,1.43
29.48,1.48
29.78,1.52
30.08,1.55
30.38,1.58
30.68,1.60
30.99,1.63
31.30,1.66
31.61,1.69
31.93,1.72
32.24,1.73
32.57,1.74
32.89,1.74
33.22,1.75
33.55,1.75
33.89,1.77
34.23,1.78
34.57,1.80
34.92,1.81
35.27,1.82
35.62,1.83
35.97,1.84
36.33,1.85
36.70,1.85
37.06,1.85
37.43,1.84
37.81,1.84
38.19,1.84
38.57,1.84
38.95,1.85
39.34,1.86
39.74,1.87
40.14,1.88
40.54,1.90
40.94,1.91
41.35,1.92
41.76,1.91
42.18,1.91
42.60,1.91
43.03,1.91
43.46,1.92
43.90,1.92
44.33,1.93
44.78,1.91
45.23,1.88
45.68,1.85
46.13,1.84
46.60,1.87
47.06,1.89
47.53,1.90
48.01,1.88
48.49,1.86
48.97,1.85
49.46,1.85
49.96,1.81
50.46,1.73
50.96,1.66
51.47,1.62
51.99,1.61
52.51,1.59
53.03,1.56
53.56,1.50
54.10,1.46
54.64,1.43
55.18,1.43
55.74,1.40
56.29,1.37
56.86,1.34
57.42,1.35
58.00,1.38
58.58,1.36
59.16,1.34
59.76,1.34
60.35,1.35
60.96,1.34
61.57,1.32
62.18,1.31
62.80,1.31
63.43,1.30
64.07,1.29
64.71,1.31
65.35,1.32
66.01,1.31
66.67,1.31
67.33,1.32
68.01,1.35
68.69,1.31
69.37,1.28
70.07,1.28
70.77,1.32
71.48,1.32
72.19,1.31
72.91,1.28
73.64,1.31
74.38,1.34
75.12,1.36
75.87,1.32
76.63,1.31
77.40,1.30
78.17,1.31
78.95,1.32
79.74,1.29
80.54,1.25
81.35,1.21
82.16,1.21
82.98,1.23
83.81,1.26
84.65,1.23
85.50,1.22
86.35,1.23
87.22,1.23
88.09,1.24
88.97,1.23
89.86,1.21
90.76,1.19
91.66,1.19
92.58,1.20
93.51,1.21
94.44,1.21
95.39,1.20
96.34,1.17
97.30,1.15
98.28,1.12
99.26,1.09
100.25,1.08
101.25,1.08
102.27,1.08
103.29,1.08
104.32,1.06
105.37,1.05
106.42,1.04
107.48,1.01
108.56,0.98
109.64,0.94
110.74,0.91
111.85,0.93
112.97,0.89
114.10,0.87
115.24,0.89
116.39,0.89
117.55,0.86
118.73,0.82
119.92,0.81
121.12,0.81
122.33,0.79
123.55,0.79
124.79,0.80
126.03,0.77
127.29,0.75
128.57,0.73
129.85,0.70
131.15,0.68
132.46,0.65
133.79,0.61
135.12,0.57
136.48,0.53
137.84,0.49
139.22,0.47
140.61,0.45
142.02,0.41
143.44,0.39
144.87,0.40
146.32,0.35
147.78,0.31
149.26,0.29
150.75,0.28
152.26,0.28
153.78,0.25
155.32,0.22
156.88,0.20
158.44,0.19
160.03,0.18
161.63,0.15
163.24,0.13
164.88,0.10
166.53,0.10
168.19,0.09
169.87,0.06
171.57,0.04
173.29,0.02
175.02,-0.00
176.77,-0.01
178.54,-0.03
180.32,-0.07
182.13,-0.12
183.95,-0.13
185.79,-0.13
187.65,-0.13
189.52,-0.19
191.42,-0.20
193.33,-0.21
195.27,-0.24
197.22,-0.26
199.19,-0.27
201.18,-0.29
203.19,-0.32
205.23,-0.34
207.28,-0.36
209.35,-0.38
211.44,-0.38
213.56,-0.40
215.69,-0.42
217.85,-0.45
220.03,-0.48
222.23,-0.49
224.45,-0.51
226.70,-0.50
228.96,-0.51
231.25,-0.52
233.57,-0.53
235.90,-0.56
238.26,-0.56
240.64,-0.57
243.05,-0.58
245.48,-0.58
247.93,-0.59
250.41,-0.58
252.92,-0.59
255.45,-0.61
258.00,-0.63
260.58,-0.64
263.19,-0.67
265.82,-0.70
268.48,-0.71
271.16,-0.74
273.87,-0.75
276.61,-0.76
279.38,-0.81
282.17,-0.81
284.99,-0.81
287.84,-0.84
290.72,-0.87
293.63,-0.86
296.57,-0.88
299.53,-0.92
302.53,-0.92
305.55,-0.93
308.61,-0.94
311.69,-0.94
314.81,-0.98
317.96,-1.01
321.14,-1.02
324.35,-1.02
327.59,-1.03
330.87,-1.06
334.18,-1.09
337.52,-1.10
340.90,-1.09
344.30,-1.11
347.75,-1.10
351.23,-1.10
354.74,-1.13
358.28,-1.17
361.87,-1.17
365.49,-1.12
369.14,-1.14
372.83,-1.18
376.56,-1.21
380.33,-1.20
384.13,-1.21
387.97,-1.23
391.85,-1.23
395.77,-1.22
399.73,-1.14
403.72,-1.16
407.76,-1.18
411.84,-1.15
415.96,-1.14
420.12,-1.14
424.32,-1.15
428.56,-1.10
432.85,-1.07
437.18,-1.08
441.55,-1.06
445.96,-1.05
450.42,-1.06
454.93,-1.07
459.48,-1.06
464.07,-1.05
468.71,-1.04
473.40,-1.03
478.13,-1.04
482.91,-1.05
487.74,-1.04
492.62,-1.01
497.55,-1.01
502.52,-1.02
507.55,-1.05
512.62,-1.00
517.75,-1.01
522.93,-1.06
528.16,-1.03
533.44,-1.10
538.77,-1.20
544.16,-1.18
549.60,-1.19
555.10,-1.17
560.65,-1.14
566.25,-1.11
571.92,-1.09
577.64,-1.09
583.41,-1.08
589.25,-1.05
595.14,-1.01
601.09,-0.97
607.10,-1.00
613.17,-1.00
619.30,-0.98
625.50,-0.96
631.75,-0.94
638.07,-0.93
644.45,-0.91
650.89,-0.89
657.40,-0.88
663.98,-0.86
670.62,-0.83
677.32,-0.83
684.10,-0.83
690.94,-0.82
697.85,-0.81
704.83,-0.85
711.87,-0.89
718.99,-0.84
726.18,-0.82
733.44,-0.80
740.78,-0.80
748.19,-0.77
755.67,-0.78
763.23,-0.80
770.86,-0.86
778.57,-0.94
786.35,-1.04
794.22,-1.15
802.16,-1.29
810.18,-1.52
818.28,-1.83
826.46,-2.17
834.73,-2.54
843.08,-2.99
851.51,-3.46
860.02,-3.79
868.62,-4.03
877.31,-4.15
886.08,-3.98
894.94,-3.72
903.89,-3.39
912.93,-2.96
922.06,-2.47
931.28,-2.05
940.59,-1.66
950.00,-1.31
959.50,-1.00
969.09,-0.73
978.78,-0.49
988.57,-0.27
998.46,-0.03
1008.44,0.19
1018.53,0.40
1028.71,0.60
1039.00,0.73
1049.39,0.83
1059.88,0.91
1070.48,1.02
1081.19,1.13
1092.00,1.23
1102.92,1.26
1113.95,1.18
1125.09,1.10
1136.34,1.08
1147.70,1.17
1159.18,1.29
1170.77,1.40
1182.48,1.45
1194.30,1.49
1206.25,1.53
1218.31,1.40
1230.49,1.35
1242.80,1.30
1255.22,1.09
1267.78,0.87
1280.45,0.80
1293.26,0.81
1306.19,0.82
1319.25,0.84
1332.45,0.84
1345.77,0.88
1359.23,0.98
1372.82,0.90
1386.55,0.83
1400.41,0.78
1414.42,0.75
1428.56,0.72
1442.85,0.48
1457.28,0.34
1471.85,0.33
1486.57,-0.00
1501.43,-0.38
1516.45,-0.31
1531.61,-0.34
1546.93,-0.52
1562.40,-0.74
1578.02,-0.93
1593.80,-0.95
1609.74,-1.06
1625.84,-1.21
1642.10,-0.97
1658.52,-0.79
1675.10,-0.65
1691.85,-0.89
1708.77,-0.99
1725.86,-0.97
1743.12,-1.15
1760.55,-1.33
1778.15,-1.43
1795.94,-1.19
1813.90,-0.82
1832.03,-0.44
1850.36,-0.12
1868.86,-0.43
1887.55,-0.38
1906.42,-0.28
1925.49,-0.44
1944.74,-0.65
1964.19,-0.79
1983.83,-0.68
2003.67,-0.29
2023.71,-0.04
2043.94,0.21
2064.38,0.53
2085.03,1.12
2105.88,1.20
2126.94,1.08
2148.20,1.00
2169.69,1.10
2191.38,1.24
2213.30,1.50
2235.43,1.82
2257.78,2.29
2280.36,2.66
2303.17,2.91
2326.20,3.33
2349.46,3.62
2372.95,3.95
2396.68,4.34
2420.65,4.58
2444.86,4.83
2469.31,5.12
2494.00,5.46
2518.94,5.79
2544.13,6.08
2569.57,6.26
2595.27,6.42
2621.22,6.58
2647.43,6.83
2673.90,7.15
2700.64,7.48
2727.65,7.80
2754.93,8.09
2782.48,8.37
2810.30,8.62
2838.40,8.85
2866.79,9.22
2895.46,9.68
2924.41,9.83
2953.65,9.94
2983.19,10.18
3013.02,10.46
3043.15,10.76
3073.58,10.90
3104.32,10.90
3135.36,11.03
3166.72,11.18
3198.38,11.31
3230.37,11.45
3262.67,11.58
3295.30,11.69
3328.25,11.75
3361.53,11.76
3395.15,11.69
3429.10,11.74
3463.39,11.69
3498.03,11.45
3533.01,11.32
3568.34,11.22
3604.02,11.10
3640.06,10.67
3676.46,10.35
3713.22,10.05
3750.36,9.70
3787.86,9.46
3825.74,9.19
3864.00,8.79
3902.64,8.42
3941.66,8.06
3981.08,7.74
4020.89,7.46
4061.10,7.20
4101.71,6.84
4142.73,6.51
4184.15,6.21
4226.00,6.03
4268.26,5.87
4310.94,5.72
4354.05,5.49
4397.59,5.36
4441.56,5.29
4485.98,5.07
4530.84,4.85
4576.15,4.61
4621.91,4.34
4668.13,3.91
4714.81,3.79
4761.96,3.81
4809.58,3.96
4857.67,4.01
4906.25,4.06
4955.31,4.16
5004.87,4.32
5054.91,4.38
5105.46,4.39
5156.52,4.38
5208.08,4.48
5260.16,4.57
5312.77,4.65
5365.89,4.70
5419.55,4.76
5473.75,4.86
5528.49,4.98
5583.77,4.92
5639.61,4.80
5696.00,4.66
5752.96,4.38
5810.49,4.09
5868.60,3.71
5927.28,3.39
5986.56,3.13
6046.42,2.95
6106.89,2.73
6167.96,2.43
6229.64,2.13
6291.93,1.88
6354.85,1.52
6418.40,1.19
6482.58,0.98
6547.41,0.84
6612.88,0.73
6679.01,0.61
6745.80,0.71
6813.26,0.89
6881.39,0.97
6950.21,1.26
7019.71,1.53
7089.91,1.50
7160.81,1.43
7232.41,1.33
7304.74,1.16
7377.79,0.50
7451.56,-0.21
7526.08,-1.11
7601.34,-2.36
7677.35,-3.28
7754.13,-4.04
7831.67,-3.90
7909.98,-3.48
7989.08,-2.64
8068.98,-1.77
8149.67,-1.03
8231.16,-0.51
8313.47,0.07
8396.61,0.62
8480.57,0.94
8565.38,1.42
8651.03,1.82
8737.54,2.01
8824.92,1.90
8913.17,1.15
9002.30,0.13
9092.32,-1.59
9183.25,-3.52
9275.08,-5.46
9367.83,-7.22
9461.51,-8.67
9556.12,-10.16
9651.68,-11.64
9748.20,-13.01
9845.68,-13.61
9944.14,-13.38
10043.58,-12.14
10144.02,-10.14
10245.46,-8.04
10347.91,-5.97
10451.39,-3.99
10555.91,-2.53
10661.46,-1.61
10768.08,-1.23
10875.76,-1.55
10984.52,-1.96
11094.36,-2.40
11205.31,-2.82
11317.36,-3.34
11430.53,-3.87
11544.84,-4.05
11660.29,-3.66
11776.89,-3.14
11894.66,-2.38
12013.60,-1.59
12133.74,-0.97
12255.08,-0.65
12377.63,-0.54
12501.41,-0.53
12626.42,-0.43
12752.68,-0.07
12880.21,0.31
13009.01,0.68
13139.10,1.04
13270.49,0.86
13403.20,0.32
13537.23,-1.03
13672.60,-2.47
13809.33,-3.96
13947.42,-5.10
14086.90,-4.93
14227.77,-3.95
14370.04,-3.21
14513.74,-2.88
14658.88,-4.01
14805.47,-5.75
14953.52,-8.50
15103.06,-9.30
15254.09,-9.30
15406.63,-11.96
15560.70,-12.61
15716.30,-10.14
15873.47,-9.45
16032.20,-9.23
16192.52,-8.94
16354.45,-8.92
16517.99,-9.01
16683.17,-8.93
16850.01,-8.67
17018.51,-8.35
17188.69,-8.50
17360.58,-9.65
17534.18,-11.32
17709.53,-12.89
17886.62,-15.07
18065.49,-16.77
18246.14,-17.31
18428.60,-17.57
18612.89,-17.68
18799.02,-17.56
18987.01,-17.00
19176.88,-15.94
19368.65,-14.86
19562.33,-13.93
19757.96,-13.31
19955.54,-12.68
