frequency,raw,smoothed,error,error_smoothed,equalization,parametric_eq,fixed_band_eq,equalized_raw,equalized_smoothed,target
20.00,9.27,9.27,2.22,2.22,-2.23,-2.43,-1.12,7.04,7.04,7.05
20.20,9.29,9.29,2.24,2.24,-2.24,-2.44,-1.15,7.05,7.05,7.05
20.40,9.31,9.31,2.26,2.26,-2.25,-2.44,-1.19,7.06,7.05,7.05
20.61,9.32,9.32,2.27,2.27,-2.27,-2.44,-1.22,7.05,7.05,7.05
20.81,9.33,9.33,2.28,2.28,-2.28,-2.44,-1.26,7.05,7.05,7.05
21.02,9.34,9.34,2.29,2.29,-2.29,-2.44,-1.30,7.05,7.05,7.05
21.23,9.35,9.35,2.30,2.30,-2.30,-2.44,-1.33,7.05,7.05,7.05
21.44,9.36,9.36,2.32,2.32,-2.32,-2.44,-1.37,7.04,7.04,7.05
21.66,9.37,9.37,2.33,2.33,-2.33,-2.44,-1.41,7.04,7.04,7.04
21.87,9.38,9.38,2.34,2.34,-2.34,-2.44,-1.46,7.04,7.04,7.04
22.09,9.39,9.39,2.35,2.35,-2.35,-2.44,-1.50,7.04,7.04,7.04
22.31,9.40,9.40,2.36,2.36,-2.36,-2.45,-1.54,7.04,7.04,7.04
22.54,9.41,9.41,2.37,2.37,-2.37,-2.45,-1.59,7.04,7.04,7.04
22.76,9.43,9.43,2.39,2.39,-2.39,-2.45,-1.63,7.04,7.04,7.04
22.99,9.44,9.44,2.40,2.40,-2.40,-2.45,-1.68,7.04,7.04,7.04
23.22,9.45,9.45,2.41,2.41,-2.41,-2.45,-1.73,7.04,7.04,7.04
23.45,9.46,9.46,2.42,2.42,-2.43,-2.45,-1.78,7.03,7.03,7.04
23.69,9.47,9.47,2.43,2.44,-2.44,-2.45,-1.83,7.03,7.03,7.04
23.92,9.49,9.49,2.46,2.45,-2.45,-2.45,-1.88,7.04,7.03,7.03
24.16,9.50,9.50,2.47,2.47,-2.46,-2.45,-1.93,7.04,7.04,7.03
24.40,9.51,9.51,2.48,2.48,-2.47,-2.45,-1.99,7.04,7.04,7.03
24.65,9.52,9.52,2.49,2.49,-2.48,-2.46,-2.04,7.04,7.04,7.03
24.89,9.52,9.52,2.49,2.49,-2.49,-2.46,-2.09,7.03,7.03,7.03
25.14,9.52,9.52,2.49,2.49,-2.50,-2.46,-2.15,7.02,7.03,7.03
25.39,9.52,9.52,2.49,2.50,-2.50,-2.46,-2.20,7.02,7.02,7.03
25.65,9.53,9.53,2.51,2.50,-2.51,-2.46,-2.26,7.02,7.02,7.03
25.91,9.54,9.54,2.52,2.52,-2.52,-2.46,-2.31,7.02,7.02,7.02
26.16,9.55,9.55,2.53,2.53,-2.53,-2.46,-2.37,7.02,7.02,7.02
26.43,9.56,9.56,2.54,2.54,-2.54,-2.46,-2.42,7.02,7.02,7.02
26.69,9.57,9.57,2.55,2.55,-2.55,-2.46,-2.48,7.02,7.02,7.02
26.96,9.58,9.58,2.56,2.56,-2.55,-2.46,-2.53,7.03,7.02,7.02
27.23,9.58,9.58,2.57,2.57,-2.56,-2.47,-2.58,7.02,7.02,7.02
27.50,9.58,9.58,2.57,2.56,-2.56,-2.47,-2.63,7.02,7.02,7.01
27.77,9.57,9.57,2.56,2.56,-2.56,-2.47,-2.68,7.01,7.01,7.01
28.05,9.56,9.56,2.55,2.55,-2.56,-2.47,-2.73,7.00,7.01,7.01
28.33,9.56,9.56,2.55,2.55,-2.56,-2.47,-2.77,7.00,7.00,7.01
28.62,9.55,9.55,2.55,2.55,-2.56,-2.47,-2.82,6.99,7.00,7.01
28.90,9.55,9.55,2.55,2.55,-2.56,-2.47,-2.85,6.99,7.00,7.00
29.19,9.56,9.56,2.56,2.56,-2.56,-2.47,-2.89,7.00,7.00,7.00
29.48,9.56,9.56,2.56,2.57,-2.56,-2.47,-2.92,7.00,7.00,7.00
29.78,9.57,9.57,2.57,2.57,-2.57,-2.47,-2.95,7.00,7.00,7.00
30.08,9.57,9.57,2.58,2.58,-2.57,-2.47,-2.98,7.00,7.00,6.99
30.38,9.57,9.57,2.58,2.58,-2.57,-2.47,-3.00,7.00,7.00,6.99
30.68,9.56,9.56,2.57,2.57,-2.57,-2.47,-3.02,6.99,6.99,6.99
30.99,9.55,9.55,2.57,2.57,-2.57,-2.48,-3.03,6.98,6.98,6.98
31.30,9.54,9.54,2.56,2.56,-2.57,-2.48,-3.04,6.97,6.98,6.98
31.61,9.54,9.54,2.56,2.56,-2.56,-2.48,-3.05,6.98,6.97,6.98
31.93,9.53,9.53,2.56,2.56,-2.56,-2.48,-3.05,6.97,6.97,6.98
32.24,9.53,9.53,2.56,2.56,-2.56,-2.48,-3.05,6.97,6.97,6.97
32.57,9.53,9.53,2.56,2.56,-2.56,-2.48,-3.04,6.97,6.97,6.97
32.89,9.53,9.53,2.57,2.56,-2.56,-2.48,-3.03,6.97,6.97,6.96
33.22,9.52,9.52,2.56,2.56,-2.56,-2.48,-3.02,6.96,6.97,6.96
33.55,9.52,9.52,2.56,2.56,-2.56,-2.48,-3.00,6.96,6.96,6.96
33.89,9.51,9.51,2.56,2.56,-2.55,-2.48,-2.98,6.96,6.96,6.95
34.23,9.50,9.50,2.55,2.55,-2.55,-2.48,-2.96,6.95,6.95,6.95
34.57,9.48,9.48,2.54,2.54,-2.54,-2.48,-2.94,6.94,6.94,6.94
34.92,9.47,9.47,2.53,2.53,-2.54,-2.48,-2.91,6.93,6.93,6.94
35.27,9.47,9.47,2.54,2.53,-2.54,-2.48,-2.88,6.93,6.93,6.94
35.62,9.46,9.46,2.53,2.53,-2.54,-2.48,-2.85,6.92,6.93,6.93
35.97,9.46,9.46,2.54,2.54,-2.53,-2.48,-2.82,6.93,6.93,6.93
36.33,9.46,9.46,2.54,2.54,-2.53,-2.47,-2.78,6.93,6.93,6.92
36.70,9.45,9.45,2.54,2.54,-2.53,-2.47,-2.75,6.92,6.92,6.91
37.06,9.44,9.44,2.53,2.53,-2.52,-2.47,-2.71,6.92,6.91,6.91
37.43,9.42,9.42,2.52,2.52,-2.52,-2.47,-2.68,6.90,6.90,6.90
37.81,9.40,9.40,2.50,2.51,-2.51,-2.47,-2.64,6.89,6.89,6.90
38.19,9.39,9.39,2.50,2.50,-2.51,-2.47,-2.61,6.88,6.88,6.89
38.57,9.38,9.38,2.50,2.50,-2.50,-2.47,-2.58,6.88,6.88,6.88
38.95,9.37,9.37,2.49,2.49,-2.49,-2.47,-2.54,6.88,6.88,6.88
39.34,9.36,9.36,2.49,2.49,-2.49,-2.46,-2.51,6.87,6.88,6.87
39.74,9.35,9.35,2.49,2.49,-2.48,-2.46,-2.48,6.87,6.87,6.86
40.14,9.33,9.33,2.48,2.48,-2.47,-2.46,-2.45,6.86,6.86,6.86
40.54,9.31,9.31,2.46,2.46,-2.47,-2.46,-2.42,6.84,6.85,6.85
40.94,9.29,9.29,2.45,2.45,-2.46,-2.45,-2.39,6.83,6.83,6.84
41.35,9.28,9.28,2.45,2.45,-2.45,-2.45,-2.36,6.83,6.83,6.83
41.76,9.26,9.26,2.44,2.44,-2.44,-2.45,-2.33,6.82,6.82,6.82
42.18,9.25,9.25,2.44,2.44,-2.43,-2.44,-2.31,6.82,6.82,6.81
42.60,9.23,9.23,2.43,2.43,-2.42,-2.44,-2.29,6.81,6.81,6.80
43.03,9.21,9.21,2.42,2.42,-2.42,-2.44,-2.27,6.79,6.80,6.79
43.46,9.19,9.19,2.41,2.41,-2.41,-2.43,-2.25,6.78,6.78,6.78
43.90,9.17,9.17,2.40,2.40,-2.40,-2.43,-2.23,6.77,6.77,6.77
44.33,9.15,9.15,2.39,2.39,-2.39,-2.42,-2.21,6.76,6.76,6.76
44.78,9.13,9.13,2.38,2.38,-2.38,-2.42,-2.20,6.75,6.75,6.75
45.23,9.11,9.11,2.37,2.37,-2.37,-2.41,-2.19,6.74,6.74,6.74
45.68,9.08,9.09,2.35,2.36,-2.36,-2.41,-2.18,6.72,6.73,6.73
46.13,9.06,9.06,2.35,2.35,-2.35,-2.40,-2.17,6.72,6.72,6.72
46.60,9.04,9.04,2.34,2.34,-2.33,-2.39,-2.16,6.71,6.70,6.70
47.06,9.01,9.01,2.32,2.32,-2.32,-2.39,-2.15,6.69,6.69,6.69
47.53,8.99,8.99,2.32,2.31,-2.31,-2.38,-2.15,6.68,6.67,6.68
48.01,8.96,8.96,2.30,2.30,-2.31,-2.37,-2.15,6.65,6.66,6.66
48.49,8.94,8.94,2.29,2.30,-2.30,-2.37,-2.14,6.64,6.64,6.65
48.97,8.92,8.92,2.29,2.29,-2.29,-2.36,-2.14,6.63,6.63,6.63
49.46,8.90,8.90,2.29,2.29,-2.29,-2.35,-2.15,6.62,6.62,6.61
49.96,8.88,8.88,2.28,2.28,-2.28,-2.34,-2.15,6.60,6.60,6.60
50.46,8.86,8.86,2.28,2.28,-2.27,-2.33,-2.15,6.59,6.58,6.58
50.96,8.83,8.83,2.27,2.27,-2.27,-2.32,-2.16,6.56,6.57,6.56
51.47,8.80,8.81,2.25,2.26,-2.26,-2.31,-2.16,6.54,6.55,6.55
51.99,8.78,8.78,2.25,2.25,-2.25,-2.30,-2.17,6.53,6.53,6.53
52.51,8.75,8.75,2.24,2.24,-2.24,-2.29,-2.18,6.51,6.51,6.51
53.03,8.72,8.72,2.23,2.23,-2.23,-2.28,-2.19,6.49,6.49,6.49
53.56,8.69,8.69,2.22,2.22,-2.22,-2.27,-2.20,6.47,6.47,6.47
54.10,8.66,8.66,2.21,2.22,-2.21,-2.26,-2.21,6.45,6.45,6.45
54.64,8.63,8.63,2.21,2.21,-2.20,-2.25,-2.21,6.43,6.43,6.42
55.18,8.60,8.60,2.20,2.20,-2.20,-2.24,-2.22,6.40,6.40,6.40
55.74,8.56,8.56,2.18,2.19,-2.19,-2.23,-2.23,6.37,6.38,6.38
56.29,8.53,8.53,2.18,2.18,-2.18,-2.22,-2.24,6.35,6.35,6.35
56.86,8.50,8.50,2.17,2.17,-2.17,-2.21,-2.25,6.33,6.33,6.33
57.42,8.47,8.47,2.17,2.16,-2.16,-2.20,-2.26,6.31,6.30,6.30
58.00,8.43,8.43,2.15,2.16,-2.16,-2.18,-2.27,6.28,6.28,6.28
58.58,8.40,8.40,2.15,2.15,-2.15,-2.17,-2.27,6.25,6.25,6.25
59.16,8.37,8.37,2.15,2.14,-2.14,-2.16,-2.28,6.23,6.22,6.22
59.76,8.33,8.33,2.14,2.14,-2.14,-2.15,-2.28,6.19,6.19,6.19
60.35,8.29,8.29,2.13,2.13,-2.13,-2.14,-2.29,6.16,6.16,6.16
60.96,8.26,8.26,2.13,2.13,-2.13,-2.13,-2.29,6.13,6.13,6.13
61.57,8.23,8.23,2.13,2.13,-2.13,-2.12,-2.29,6.10,6.10,6.10
62.18,8.20,8.20,2.13,2.13,-2.13,-2.11,-2.29,6.07,6.07,6.07
62.80,8.16,8.16,2.12,2.12,-2.13,-2.11,-2.29,6.03,6.03,6.04
63.43,8.12,8.13,2.12,2.12,-2.13,-2.10,-2.29,5.99,6.00,6.00
64.07,8.09,8.09,2.12,2.13,-2.12,-2.09,-2.28,5.97,5.97,5.97
64.71,8.06,8.06,2.13,2.13,-2.12,-2.09,-2.28,5.94,5.93,5.93
65.35,8.02,8.02,2.13,2.13,-2.12,-2.08,-2.27,5.90,5.90,5.89
66.01,7.97,7.97,2.12,2.12,-2.12,-2.08,-2.26,5.85,5.86,5.86
66.67,7.93,7.93,2.11,2.11,-2.11,-2.08,-2.25,5.82,5.82,5.82
67.33,7.88,7.88,2.10,2.11,-2.11,-2.07,-2.24,5.77,5.77,5.78
68.01,7.84,7.84,2.11,2.10,-2.11,-2.07,-2.23,5.73,5.73,5.73
68.69,7.79,7.79,2.10,2.10,-2.10,-2.07,-2.22,5.69,5.69,5.69
69.37,7.75,7.75,2.10,2.10,-2.10,-2.07,-2.21,5.65,5.65,5.65
70.07,7.71,7.71,2.11,2.10,-2.10,-2.08,-2.19,5.61,5.61,5.61
70.77,7.66,7.66,2.10,2.10,-2.10,-2.08,-2.18,5.56,5.56,5.56
71.48,7.62,7.62,2.11,2.10,-2.10,-2.09,-2.17,5.52,5.52,5.51
72.19,7.57,7.57,2.10,2.11,-2.11,-2.09,-2.16,5.46,5.47,5.47
72.91,7.53,7.53,2.11,2.11,-2.11,-2.10,-2.14,5.42,5.42,5.42
73.64,7.48,7.48,2.11,2.11,-2.11,-2.11,-2.13,5.37,5.37,5.37
74.38,7.43,7.43,2.11,2.12,-2.11,-2.11,-2.12,5.32,5.32,5.32
75.12,7.39,7.39,2.12,2.12,-2.12,-2.12,-2.11,5.27,5.27,5.27
75.87,7.34,7.34,2.12,2.12,-2.12,-2.13,-2.10,5.22,5.22,5.22
76.63,7.29,7.29,2.13,2.13,-2.13,-2.14,-2.08,5.16,5.16,5.16
77.40,7.24,7.24,2.13,2.13,-2.13,-2.16,-2.08,5.11,5.11,5.11
78.17,7.19,7.19,2.14,2.14,-2.14,-2.17,-2.07,5.05,5.05,5.05
78.95,7.15,7.14,2.15,2.15,-2.15,-2.18,-2.06,5.00,5.00,5.00
79.74,7.09,7.09,2.15,2.15,-2.15,-2.19,-2.05,4.94,4.94,4.94
80.54,7.04,7.04,2.16,2.16,-2.16,-2.21,-2.05,4.88,4.88,4.88
81.35,6.99,6.99,2.17,2.17,-2.17,-2.22,-2.05,4.82,4.82,4.82
82.16,6.94,6.94,2.18,2.18,-2.18,-2.23,-2.04,4.76,4.76,4.76
82.98,6.89,6.89,2.19,2.19,-2.19,-2.25,-2.04,4.70,4.70,4.70
83.81,6.83,6.83,2.19,2.20,-2.19,-2.26,-2.04,4.64,4.64,4.64
84.65,6.78,6.78,2.20,2.21,-2.20,-2.27,-2.05,4.58,4.58,4.58
85.50,6.73,6.73,2.22,2.21,-2.21,-2.29,-2.05,4.52,4.51,4.51
86.35,6.67,6.67,2.22,2.22,-2.22,-2.30,-2.05,4.45,4.45,4.45
87.22,6.61,6.62,2.23,2.23,-2.23,-2.31,-2.06,4.38,4.38,4.38
88.09,6.56,6.56,2.24,2.24,-2.24,-2.32,-2.07,4.32,4.32,4.32
88.97,6.51,6.51,2.26,2.26,-2.26,-2.34,-2.08,4.26,4.25,4.25
89.86,6.45,6.45,2.27,2.27,-2.27,-2.35,-2.09,4.18,4.18,4.18
90.76,6.39,6.39,2.28,2.28,-2.28,-2.36,-2.10,4.11,4.11,4.11
91.66,6.33,6.33,2.28,2.29,-2.29,-2.37,-2.12,4.04,4.05,4.05
92.58,6.28,6.28,2.30,2.30,-2.30,-2.38,-2.14,3.98,3.98,3.98
93.51,6.22,6.22,2.31,2.31,-2.31,-2.39,-2.15,3.91,3.91,3.91
94.44,6.16,6.16,2.32,2.32,-2.32,-2.40,-2.17,3.84,3.84,3.84
95.39,6.10,6.10,2.33,2.34,-2.34,-2.41,-2.19,3.77,3.77,3.77
96.34,6.04,6.04,2.35,2.35,-2.35,-2.42,-2.21,3.69,3.70,3.70
97.30,5.99,5.98,2.37,2.36,-2.36,-2.42,-2.24,3.63,3.62,3.62
98.28,5.92,5.92,2.37,2.37,-2.37,-2.43,-2.26,3.55,3.55,3.55
99.26,5.86,5.86,2.38,2.38,-2.38,-2.44,-2.29,3.48,3.48,3.48
100.25,5.80,5.80,2.39,2.39,-2.40,-2.44,-2.31,3.41,3.40,3.41
101.25,5.74,5.74,2.41,2.41,-2.41,-2.45,-2.34,3.33,3.33,3.33
102.27,5.68,5.68,2.42,2.42,-2.42,-2.45,-2.37,3.26,3.26,3.26
103.29,5.62,5.62,2.43,2.43,-2.43,-2.46,-2.40,3.19,3.19,3.19
104.32,5.56,5.56,2.45,2.44,-2.44,-2.46,-2.42,3.12,3.12,3.12
105.37,5.49,5.49,2.45,2.45,-2.45,-2.47,-2.45,3.04,3.04,3.04
106.42,5.43,5.43,2.46,2.46,-2.46,-2.47,-2.48,2.97,2.97,2.97
107.48,5.37,5.37,2.47,2.47,-2.47,-2.47,-2.51,2.90,2.89,2.90
108.56,5.30,5.30,2.48,2.48,-2.48,-2.47,-2.54,2.82,2.82,2.82
109.64,5.24,5.24,2.49,2.49,-2.49,-2.47,-2.57,2.75,2.75,2.75
110.74,5.18,5.18,2.50,2.50,-2.50,-2.48,-2.59,2.68,2.68,2.68
111.85,5.11,5.12,2.50,2.51,-2.51,-2.48,-2.62,2.60,2.61,2.61
112.97,5.05,5.05,2.52,2.52,-2.52,-2.48,-2.64,2.53,2.54,2.53
114.10,4.99,4.99,2.53,2.52,-2.52,-2.48,-2.66,2.47,2.46,2.46
115.24,4.92,4.92,2.53,2.53,-2.53,-2.48,-2.68,2.39,2.39,2.39
116.39,4.85,4.86,2.53,2.54,-2.53,-2.47,-2.70,2.32,2.32,2.32
117.55,4.79,4.79,2.54,2.54,-2.54,-2.47,-2.72,2.25,2.25,2.25
118.73,4.72,4.72,2.54,2.54,-2.54,-2.47,-2.73,2.18,2.18,2.18
119.92,4.64,4.65,2.53,2.54,-2.54,-2.47,-2.74,2.10,2.11,2.11
121.12,4.58,4.58,2.54,2.54,-2.55,-2.47,-2.75,2.03,2.04,2.04
122.33,4.53,4.52,2.56,2.55,-2.55,-2.46,-2.76,1.98,1.97,1.97
123.55,4.46,4.46,2.55,2.56,-2.55,-2.46,-2.76,1.91,1.91,1.91
124.79,4.39,4.39,2.55,2.56,-2.55,-2.46,-2.76,1.84,1.84,1.84
126.03,4.33,4.33,2.56,2.56,-2.55,-2.45,-2.76,1.78,1.77,1.77
127.29,4.26,4.26,2.55,2.56,-2.56,-2.45,-2.75,1.71,1.71,1.71
128.57,4.20,4.20,2.56,2.55,-2.55,-2.44,-2.74,1.65,1.64,1.64
129.85,4.13,4.13,2.55,2.55,-2.55,-2.44,-2.73,1.58,1.58,1.58
131.15,4.06,4.06,2.54,2.55,-2.55,-2.43,-2.72,1.51,1.51,1.52
132.46,4.00,4.00,2.55,2.54,-2.54,-2.43,-2.70,1.46,1.45,1.45
133.79,3.93,3.93,2.54,2.54,-2.54,-2.42,-2.68,1.39,1.39,1.39
135.12,3.87,3.87,2.54,2.54,-2.53,-2.42,-2.65,1.34,1.33,1.33
136.48,3.80,3.80,2.53,2.53,-2.53,-2.41,-2.63,1.27,1.27,1.27
137.84,3.73,3.73,2.52,2.52,-2.52,-2.40,-2.60,1.21,1.21,1.21
139.22,3.67,3.67,2.51,2.51,-2.51,-2.40,-2.58,1.16,1.16,1.16
140.61,3.60,3.60,2.50,2.50,-2.50,-2.39,-2.55,1.10,1.10,1.10
142.02,3.54,3.54,2.50,2.49,-2.49,-2.38,-2.52,1.05,1.05,1.04
143.44,3.47,3.47,2.48,2.48,-2.48,-2.38,-2.48,0.99,0.99,0.99
144.87,3.41,3.41,2.47,2.47,-2.47,-2.37,-2.45,0.94,0.94,0.94
146.32,3.34,3.34,2.46,2.46,-2.46,-2.36,-2.42,0.88,0.88,0.88
147.78,3.28,3.28,2.45,2.45,-2.45,-2.35,-2.38,0.83,0.83,0.83
149.26,3.21,3.21,2.43,2.43,-2.43,-2.34,-2.35,0.78,0.78,0.78
150.75,3.15,3.15,2.42,2.42,-2.42,-2.34,-2.32,0.73,0.73,0.73
152.26,3.09,3.09,2.41,2.41,-2.41,-2.33,-2.28,0.68,0.68,0.68
153.78,3.03,3.03,2.40,2.40,-2.39,-2.32,-2.25,0.64,0.64,0.64
155.32,2.97,2.97,2.38,2.38,-2.38,-2.31,-2.22,0.59,0.59,0.59
156.88,2.91,2.91,2.37,2.36,-2.36,-2.30,-2.19,0.55,0.54,0.54
158.44,2.84,2.84,2.34,2.35,-2.35,-2.29,-2.16,0.49,0.50,0.50
160.03,2.78,2.78,2.32,2.33,-2.33,-2.28,-2.13,0.45,0.45,0.46
161.63,2.72,2.72,2.32,2.31,-2.31,-2.27,-2.10,0.41,0.41,0.40
163.24,2.66,2.66,2.30,2.30,-2.30,-2.26,-2.07,0.36,0.36,0.36
164.88,2.60,2.60,2.28,2.28,-2.28,-2.25,-2.04,0.32,0.32,0.32
166.53,2.54,2.54,2.26,2.26,-2.26,-2.24,-2.02,0.28,0.28,0.28
168.19,2.49,2.49,2.25,2.24,-2.24,-2.23,-1.99,0.25,0.24,0.24
169.87,2.43,2.43,2.22,2.22,-2.22,-2.22,-1.97,0.21,0.21,0.21
171.57,2.37,2.38,2.20,2.21,-2.20,-2.21,-1.95,0.17,0.17,0.17
173.29,2.32,2.32,2.19,2.19,-2.18,-2.19,-1.93,0.14,0.14,0.13
175.02,2.27,2.27,2.17,2.17,-2.16,-2.18,-1.91,0.11,0.10,0.10
176.77,2.21,2.21,2.14,2.14,-2.14,-2.17,-1.89,0.07,0.07,0.07
178.54,2.15,2.15,2.12,2.12,-2.12,-2.16,-1.88,0.03,0.03,0.03
180.32,2.10,2.10,2.10,2.10,-2.10,-2.15,-1.86,-0.00,-0.00,0.00
182.13,2.05,2.05,2.08,2.08,-2.08,-2.13,-1.85,-0.03,-0.03,-0.03
183.95,2.00,2.00,2.06,2.06,-2.06,-2.12,-1.84,-0.06,-0.06,-0.06
185.79,1.95,1.95,2.04,2.04,-2.04,-2.11,-1.83,-0.09,-0.09,-0.09
187.65,1.90,1.90,2.02,2.02,-2.02,-2.09,-1.82,-0.12,-0.11,-0.12
189.52,1.86,1.86,2.00,2.00,-2.00,-2.08,-1.81,-0.14,-0.14,-0.14
191.42,1.81,1.81,1.98,1.98,-1.98,-2.07,-1.81,-0.17,-0.17,-0.17
193.33,1.76,1.76,1.96,1.96,-1.96,-2.05,-1.80,-0.20,-0.19,-0.20
195.27,1.72,1.72,1.94,1.94,-1.94,-2.04,-1.80,-0.22,-0.22,-0.22
197.22,1.67,1.67,1.92,1.92,-1.92,-2.03,-1.80,-0.25,-0.25,-0.25
199.19,1.63,1.63,1.90,1.90,-1.90,-2.01,-1.80,-0.27,-0.27,-0.27
201.18,1.59,1.59,1.88,1.88,-1.88,-2.00,-1.80,-0.29,-0.29,-0.29
203.19,1.55,1.55,1.86,1.87,-1.87,-1.98,-1.80,-0.31,-0.31,-0.31
205.23,1.51,1.51,1.85,1.85,-1.85,-1.97,-1.80,-0.34,-0.33,-0.34
207.28,1.48,1.48,1.84,1.83,-1.83,-1.95,-1.80,-0.35,-0.36,-0.36
209.35,1.44,1.44,1.82,1.82,-1.82,-1.94,-1.80,-0.38,-0.38,-0.38
211.44,1.40,1.41,1.80,1.80,-1.80,-1.92,-1.80,-0.40,-0.40,-0.40
213.56,1.37,1.37,1.79,1.78,-1.79,-1.91,-1.81,-0.41,-0.42,-0.41
215.69,1.34,1.34,1.77,1.77,-1.77,-1.89,-1.81,-0.43,-0.43,-0.43
217.85,1.30,1.30,1.75,1.75,-1.75,-1.88,-1.81,-0.45,-0.45,-0.45
220.03,1.27,1.27,1.74,1.74,-1.73,-1.86,-1.82,-0.46,-0.46,-0.47
222.23,1.23,1.23,1.71,1.72,-1.72,-1.84,-1.82,-0.48,-0.48,-0.48
224.45,1.20,1.20,1.70,1.70,-1.70,-1.83,-1.82,-0.50,-0.50,-0.50
226.70,1.16,1.16,1.68,1.68,-1.68,-1.81,-1.83,-0.52,-0.52,-0.52
228.96,1.13,1.13,1.66,1.66,-1.66,-1.80,-1.83,-0.53,-0.53,-0.53
231.25,1.10,1.10,1.65,1.64,-1.65,-1.78,-1.83,-0.55,-0.55,-0.55
233.57,1.06,1.07,1.62,1.63,-1.63,-1.76,-1.83,-0.57,-0.57,-0.56
235.90,1.04,1.04,1.62,1.62,-1.62,-1.75,-1.83,-0.58,-0.58,-0.58
238.26,1.01,1.01,1.61,1.61,-1.60,-1.73,-1.82,-0.59,-0.59,-0.60
240.64,0.99,0.98,1.60,1.59,-1.59,-1.71,-1.82,-0.60,-0.60,-0.61
243.05,0.95,0.95,1.57,1.57,-1.57,-1.70,-1.81,-0.62,-0.62,-0.62
245.48,0.92,0.92,1.55,1.55,-1.55,-1.68,-1.81,-0.63,-0.63,-0.63
247.93,0.89,0.89,1.53,1.53,-1.54,-1.66,-1.80,-0.65,-0.65,-0.64
250.41,0.86,0.86,1.51,1.52,-1.52,-1.65,-1.79,-0.66,-0.66,-0.65
252.92,0.84,0.84,1.51,1.50,-1.50,-1.63,-1.78,-0.66,-0.67,-0.66
255.45,0.81,0.81,1.49,1.49,-1.49,-1.61,-1.77,-0.68,-0.67,-0.68
258.00,0.79,0.79,1.48,1.47,-1.47,-1.60,-1.75,-0.68,-0.68,-0.68
260.58,0.76,0.76,1.46,1.46,-1.46,-1.58,-1.74,-0.70,-0.69,-0.69
263.19,0.74,0.74,1.44,1.44,-1.44,-1.56,-1.72,-0.70,-0.70,-0.70
265.82,0.72,0.72,1.43,1.43,-1.43,-1.55,-1.70,-0.71,-0.71,-0.71
268.48,0.70,0.70,1.42,1.42,-1.42,-1.53,-1.68,-0.72,-0.72,-0.72
271.16,0.68,0.68,1.41,1.41,-1.41,-1.51,-1.66,-0.73,-0.73,-0.73
273.87,0.66,0.66,1.40,1.40,-1.40,-1.50,-1.64,-0.74,-0.74,-0.74
276.61,0.65,0.65,1.40,1.39,-1.39,-1.48,-1.61,-0.74,-0.75,-0.74
279.38,0.63,0.63,1.38,1.39,-1.38,-1.47,-1.59,-0.75,-0.75,-0.75
282.17,0.62,0.62,1.38,1.38,-1.37,-1.45,-1.56,-0.75,-0.75,-0.76
284.99,0.61,0.61,1.37,1.36,-1.36,-1.43,-1.54,-0.75,-0.76,-0.76
287.84,0.59,0.59,1.34,1.35,-1.35,-1.42,-1.51,-0.76,-0.76,-0.75
290.72,0.58,0.58,1.34,1.34,-1.34,-1.40,-1.49,-0.76,-0.76,-0.76
293.63,0.57,0.57,1.34,1.33,-1.33,-1.38,-1.46,-0.76,-0.76,-0.77
296.57,0.56,0.56,1.32,1.32,-1.32,-1.37,-1.43,-0.76,-0.76,-0.76
299.53,0.54,0.54,1.30,1.30,-1.31,-1.35,-1.41,-0.77,-0.76,-0.76
302.53,0.53,0.54,1.29,1.30,-1.30,-1.34,-1.38,-0.77,-0.76,-0.76
305.55,0.53,0.52,1.29,1.28,-1.29,-1.32,-1.36,-0.76,-0.76,-0.76
308.61,0.52,0.52,1.28,1.28,-1.28,-1.31,-1.33,-0.76,-0.76,-0.76
311.69,0.50,0.51,1.26,1.27,-1.27,-1.29,-1.30,-0.77,-0.76,-0.76
314.81,0.50,0.50,1.26,1.26,-1.26,-1.28,-1.28,-0.76,-0.76,-0.76
317.96,0.49,0.49,1.25,1.25,-1.25,-1.26,-1.25,-0.76,-0.76,-0.76
321.14,0.48,0.48,1.24,1.24,-1.24,-1.25,-1.23,-0.76,-0.76,-0.76
324.35,0.47,0.47,1.23,1.23,-1.23,-1.23,-1.21,-0.76,-0.76,-0.76
327.59,0.47,0.47,1.22,1.22,-1.22,-1.22,-1.18,-0.75,-0.76,-0.75
330.87,0.46,0.46,1.21,1.21,-1.21,-1.20,-1.16,-0.75,-0.75,-0.75
334.18,0.45,0.45,1.20,1.20,-1.20,-1.19,-1.14,-0.75,-0.75,-0.75
337.52,0.45,0.45,1.20,1.20,-1.19,-1.18,-1.12,-0.74,-0.75,-0.75
340.90,0.44,0.44,1.19,1.19,-1.19,-1.16,-1.10,-0.74,-0.74,-0.75
344.30,0.44,0.44,1.18,1.18,-1.18,-1.15,-1.08,-0.73,-0.74,-0.74
347.75,0.43,0.43,1.16,1.16,-1.17,-1.14,-1.06,-0.74,-0.74,-0.73
351.23,0.42,0.43,1.16,1.15,-1.16,-1.12,-1.04,-0.74,-0.73,-0.74
354.74,0.42,0.42,1.14,1.14,-1.15,-1.11,-1.03,-0.73,-0.73,-0.72
358.28,0.42,0.42,1.14,1.14,-1.14,-1.10,-1.01,-0.71,-0.72,-0.72
361.87,0.41,0.41,1.12,1.13,-1.13,-1.09,-0.99,-0.71,-0.71,-0.71
365.49,0.41,0.41,1.12,1.12,-1.12,-1.08,-0.98,-0.71,-0.71,-0.71
369.14,0.40,0.40,1.11,1.11,-1.11,-1.07,-0.97,-0.71,-0.70,-0.71
372.83,0.40,0.40,1.09,1.09,-1.10,-1.05,-0.95,-0.70,-0.70,-0.69
376.56,0.39,0.39,1.09,1.09,-1.09,-1.04,-0.94,-0.70,-0.69,-0.69
380.33,0.39,0.39,1.08,1.08,-1.08,-1.03,-0.93,-0.69,-0.69,-0.69
384.13,0.39,0.39,1.08,1.07,-1.07,-1.02,-0.92,-0.68,-0.68,-0.69
387.97,0.38,0.38,1.06,1.06,-1.06,-1.01,-0.91,-0.68,-0.68,-0.68
391.85,0.38,0.38,1.04,1.05,-1.05,-1.00,-0.90,-0.67,-0.67,-0.66
395.77,0.38,0.38,1.05,1.04,-1.04,-0.99,-0.89,-0.66,-0.66,-0.67
399.73,0.38,0.38,1.04,1.03,-1.03,-0.98,-0.88,-0.65,-0.66,-0.66
403.72,0.37,0.37,1.02,1.03,-1.03,-0.98,-0.87,-0.66,-0.65,-0.65
407.76,0.37,0.37,1.02,1.02,-1.02,-0.97,-0.87,-0.65,-0.65,-0.65
411.84,0.37,0.37,1.01,1.01,-1.01,-0.96,-0.86,-0.64,-0.64,-0.64
415.96,0.36,0.36,1.00,1.00,-1.00,-0.95,-0.85,-0.64,-0.64,-0.63
420.12,0.36,0.36,1.00,0.99,-1.00,-0.94,-0.84,-0.64,-0.64,-0.64
424.32,0.36,0.36,0.99,0.99,-0.99,-0.93,-0.84,-0.63,-0.63,-0.63
428.56,0.36,0.36,0.98,0.98,-0.98,-0.92,-0.83,-0.62,-0.62,-0.62
432.85,0.36,0.36,0.97,0.97,-0.97,-0.92,-0.83,-0.61,-0.61,-0.61
437.18,0.36,0.36,0.97,0.97,-0.96,-0.91,-0.82,-0.60,-0.61,-0.61
441.55,0.35,0.35,0.95,0.96,-0.95,-0.90,-0.82,-0.60,-0.60,-0.60
445.96,0.35,0.35,0.95,0.94,-0.94,-0.89,-0.81,-0.59,-0.59,-0.59
450.42,0.35,0.35,0.93,0.92,-0.93,-0.88,-0.80,-0.58,-0.58,-0.58
454.93,0.34,0.34,0.91,0.91,-0.92,-0.87,-0.80,-0.58,-0.57,-0.57
459.48,0.34,0.34,0.90,0.90,-0.91,-0.86,-0.79,-0.56,-0.56,-0.56
464.07,0.34,0.34,0.90,0.89,-0.89,-0.85,-0.79,-0.55,-0.56,-0.56
468.71,0.33,0.33,0.88,0.88,-0.88,-0.84,-0.78,-0.55,-0.55,-0.55
473.40,0.33,0.33,0.87,0.87,-0.87,-0.83,-0.77,-0.54,-0.54,-0.54
478.13,0.32,0.32,0.85,0.86,-0.86,-0.82,-0.76,-0.54,-0.53,-0.53
482.91,0.32,0.32,0.84,0.84,-0.84,-0.81,-0.76,-0.52,-0.52,-0.52
487.74,0.31,0.31,0.83,0.83,-0.83,-0.79,-0.75,-0.52,-0.52,-0.51
492.62,0.31,0.31,0.82,0.82,-0.81,-0.78,-0.74,-0.50,-0.50,-0.51
497.55,0.30,0.30,0.80,0.80,-0.80,-0.77,-0.73,-0.50,-0.49,-0.50
502.52,0.30,0.30,0.79,0.78,-0.78,-0.75,-0.72,-0.48,-0.48,-0.49
507.55,0.29,0.29,0.76,0.76,-0.76,-0.74,-0.71,-0.47,-0.47,-0.47
512.62,0.28,0.28,0.74,0.74,-0.75,-0.72,-0.70,-0.47,-0.46,-0.46
517.75,0.28,0.28,0.73,0.73,-0.73,-0.70,-0.68,-0.45,-0.45,-0.45
