frequency,raw,smoothed,error,error_smoothed,equalization,parametric_eq,fixed_band_eq,equalized_raw,equalized_smoothed,target
20.00,7.44,7.44,-0.17,-0.18,0.16,-0.58,-0.28,7.61,7.60,7.61
20.20,7.47,7.48,-0.14,-0.14,0.13,-0.58,-0.28,7.60,7.60,7.61
20.40,7.50,7.51,-0.11,-0.10,0.09,-0.58,-0.29,7.60,7.61,7.61
20.61,7.54,7.54,-0.07,-0.07,0.07,-0.58,-0.30,7.61,7.61,7.61
20.81,7.58,7.58,-0.03,-0.03,0.05,-0.58,-0.31,7.63,7.63,7.61
21.02,7.60,7.61,-0.01,-0.00,0.03,-0.58,-0.32,7.64,7.64,7.61
21.23,7.62,7.62,0.01,0.01,0.02,-0.58,-0.32,7.65,7.64,7.61
21.44,7.62,7.62,0.01,0.01,0.02,-0.58,-0.33,7.64,7.63,7.61
21.66,7.59,7.60,-0.02,-0.01,0.03,-0.58,-0.34,7.62,7.63,7.61
21.87,7.56,7.56,-0.05,-0.04,0.05,-0.59,-0.35,7.61,7.61,7.61
22.09,7.53,7.53,-0.07,-0.08,0.07,-0.59,-0.36,7.60,7.60,7.61
22.31,7.50,7.51,-0.10,-0.10,0.08,-0.59,-0.37,7.58,7.59,7.61
22.54,7.49,7.49,-0.11,-0.11,0.09,-0.59,-0.38,7.58,7.58,7.61
22.76,7.49,7.50,-0.11,-0.11,0.08,-0.59,-0.39,7.57,7.58,7.60
22.99,7.52,7.52,-0.08,-0.08,0.06,-0.59,-0.40,7.59,7.59,7.60
23.22,7.55,7.56,-0.05,-0.04,0.04,-0.59,-0.41,7.59,7.60,7.60
23.45,7.60,7.60,0.00,-0.00,0.01,-0.60,-0.43,7.61,7.61,7.60
23.69,7.64,7.64,0.04,0.04,-0.02,-0.60,-0.44,7.62,7.62,7.60
23.92,7.67,7.68,0.07,0.08,-0.05,-0.60,-0.45,7.62,7.62,7.60
24.16,7.70,7.70,0.11,0.10,-0.08,-0.60,-0.46,7.62,7.62,7.60
24.40,7.71,7.71,0.12,0.11,-0.10,-0.60,-0.47,7.61,7.61,7.60
24.65,7.71,7.72,0.12,0.12,-0.12,-0.60,-0.49,7.60,7.60,7.60
24.89,7.71,7.72,0.12,0.12,-0.13,-0.60,-0.50,7.58,7.59,7.59
25.14,7.72,7.72,0.13,0.13,-0.14,-0.61,-0.51,7.58,7.58,7.59
25.39,7.73,7.74,0.14,0.14,-0.16,-0.61,-0.52,7.57,7.58,7.59
25.65,7.75,7.76,0.16,0.17,-0.18,-0.61,-0.54,7.58,7.58,7.59
25.91,7.78,7.78,0.19,0.19,-0.20,-0.61,-0.55,7.59,7.59,7.59
26.16,7.81,7.81,0.23,0.23,-0.22,-0.61,-0.56,7.59,7.59,7.59
26.43,7.84,7.84,0.26,0.26,-0.24,-0.62,-0.58,7.60,7.60,7.59
26.69,7.86,7.86,0.28,0.28,-0.27,-0.62,-0.59,7.60,7.60,7.58
26.96,7.88,7.88,0.30,0.30,-0.29,-0.62,-0.60,7.59,7.59,7.58
27.23,7.89,7.89,0.31,0.31,-0.31,-0.62,-0.62,7.58,7.58,7.58
27.50,7.90,7.91,0.33,0.33,-0.33,-0.62,-0.63,7.57,7.58,7.58
27.77,7.92,7.92,0.35,0.35,-0.35,-0.63,-0.64,7.57,7.57,7.58
28.05,7.94,7.94,0.37,0.37,-0.38,-0.63,-0.66,7.57,7.57,7.57
28.33,7.96,7.97,0.39,0.39,-0.40,-0.63,-0.67,7.57,7.57,7.57
28.62,7.99,7.99,0.42,0.42,-0.42,-0.63,-0.68,7.57,7.57,7.57
28.90,8.02,8.02,0.46,0.46,-0.45,-0.63,-0.69,7.57,7.57,7.57
29.19,8.05,8.05,0.49,0.49,-0.48,-0.64,-0.70,7.57,7.57,7.57
29.48,8.08,8.08,0.52,0.52,-0.51,-0.64,-0.72,7.57,7.57,7.56
29.78,8.10,8.11,0.54,0.55,-0.55,-0.64,-0.73,7.56,7.56,7.56
30.08,8.13,8.13,0.57,0.58,-0.58,-0.65,-0.74,7.55,7.55,7.56
30.38,8.16,8.16,0.61,0.61,-0.61,-0.65,-0.75,7.55,7.55,7.56
30.68,8.19,8.19,0.64,0.64,-0.64,-0.65,-0.76,7.55,7.55,7.55
30.99,8.22,8.22,0.67,0.67,-0.67,-0.65,-0.77,7.55,7.55,7.55
31.30,8.25,8.25,0.71,0.70,-0.70,-0.66,-0.78,7.56,7.55,7.55
31.61,8.27,8.27,0.73,0.73,-0.72,-0.66,-0.78,7.55,7.55,7.54
31.93,8.29,8.29,0.75,0.75,-0.74,-0.66,-0.79,7.55,7.55,7.54
32.24,8.30,8.30,0.77,0.77,-0.77,-0.67,-0.80,7.54,7.54,7.54
32.57,8.31,8.32,0.78,0.78,-0.79,-0.67,-0.81,7.53,7.53,7.53
32.89,8.33,8.33,0.80,0.80,-0.81,-0.67,-0.81,7.53,7.52,7.53
33.22,8.34,8.35,0.82,0.82,-0.83,-0.68,-0.82,7.52,7.52,7.53
33.55,8.36,8.37,0.84,0.85,-0.85,-0.68,-0.83,7.51,7.51,7.52
33.89,8.39,8.39,0.88,0.88,-0.88,-0.68,-0.83,7.51,7.51,7.52
34.23,8.42,8.42,0.91,0.91,-0.91,-0.69,-0.84,7.52,7.51,7.51
34.57,8.45,8.45,0.94,0.94,-0.94,-0.69,-0.85,7.52,7.51,7.51
34.92,8.47,8.48,0.97,0.97,-0.97,-0.69,-0.85,7.51,7.51,7.50
35.27,8.50,8.50,1.00,1.00,-1.00,-0.70,-0.86,7.51,7.51,7.50
35.62,8.52,8.52,1.03,1.03,-1.02,-0.70,-0.86,7.50,7.50,7.50
35.97,8.54,8.54,1.05,1.05,-1.05,-0.71,-0.87,7.50,7.49,7.49
36.33,8.55,8.56,1.07,1.07,-1.07,-0.71,-0.88,7.48,7.49,7.48
36.70,8.57,8.57,1.09,1.09,-1.09,-0.71,-0.88,7.48,7.48,7.48
37.06,8.58,8.58,1.11,1.11,-1.11,-0.72,-0.89,7.47,7.47,7.47
37.43,8.59,8.60,1.13,1.13,-1.13,-0.72,-0.90,7.46,7.46,7.47
37.81,8.61,8.61,1.15,1.15,-1.15,-0.73,-0.91,7.46,7.46,7.46
38.19,8.63,8.63,1.18,1.17,-1.17,-0.73,-0.91,7.46,7.46,7.46
38.57,8.64,8.64,1.19,1.20,-1.19,-0.74,-0.92,7.45,7.45,7.45
38.95,8.65,8.66,1.21,1.21,-1.21,-0.74,-0.93,7.44,7.45,7.44
39.34,8.66,8.66,1.23,1.23,-1.23,-0.75,-0.94,7.44,7.44,7.44
39.74,8.67,8.67,1.25,1.24,-1.24,-0.76,-0.95,7.43,7.43,7.43
40.14,8.67,8.67,1.25,1.25,-1.25,-0.76,-0.96,7.42,7.42,7.42
40.54,8.67,8.67,1.26,1.26,-1.26,-0.77,-0.98,7.41,7.41,7.41
40.94,8.67,8.67,1.27,1.27,-1.27,-0.77,-0.99,7.40,7.40,7.40
41.35,8.67,8.67,1.28,1.28,-1.28,-0.78,-1.00,7.40,7.40,7.40
41.76,8.67,8.67,1.29,1.29,-1.29,-0.79,-1.02,7.39,7.39,7.39
42.18,8.67,8.67,1.30,1.29,-1.29,-0.79,-1.03,7.38,7.38,7.38
42.60,8.66,8.67,1.30,1.30,-1.30,-0.80,-1.05,7.36,7.37,7.37
43.03,8.66,8.66,1.30,1.31,-1.31,-0.81,-1.06,7.36,7.36,7.36
43.46,8.66,8.66,1.32,1.31,-1.32,-0.81,-1.08,7.35,7.35,7.35
43.90,8.66,8.66,1.33,1.32,-1.32,-0.82,-1.10,7.34,7.34,7.34
44.33,8.66,8.66,1.34,1.33,-1.33,-0.83,-1.12,7.33,7.33,7.33
44.78,8.65,8.66,1.34,1.34,-1.34,-0.84,-1.14,7.31,7.32,7.32
45.23,8.65,8.65,1.35,1.35,-1.35,-0.85,-1.16,7.31,7.30,7.30
45.68,8.64,8.65,1.35,1.35,-1.35,-0.85,-1.18,7.29,7.29,7.29
46.13,8.64,8.64,1.36,1.36,-1.36,-0.86,-1.20,7.28,7.28,7.28
46.60,8.63,8.63,1.37,1.37,-1.37,-0.87,-1.23,7.27,7.27,7.27
47.06,8.62,8.62,1.37,1.37,-1.37,-0.88,-1.25,7.25,7.25,7.25
47.53,8.61,8.61,1.37,1.37,-1.38,-0.89,-1.28,7.24,7.24,7.24
48.01,8.60,8.60,1.38,1.38,-1.38,-0.90,-1.30,7.23,7.23,7.23
48.49,8.59,8.59,1.38,1.38,-1.38,-0.91,-1.33,7.22,7.22,7.21
48.97,8.57,8.58,1.38,1.38,-1.38,-0.92,-1.35,7.20,7.20,7.20
49.46,8.56,8.56,1.38,1.38,-1.37,-0.93,-1.38,7.19,7.18,7.18
49.96,8.53,8.54,1.37,1.37,-1.37,-0.94,-1.41,7.16,7.16,7.16
50.46,8.51,8.51,1.37,1.37,-1.37,-0.96,-1.44,7.14,7.14,7.15
50.96,8.49,8.49,1.36,1.36,-1.37,-0.97,-1.47,7.12,7.12,7.13
51.47,8.47,8.48,1.36,1.37,-1.37,-0.98,-1.50,7.10,7.11,7.11
51.99,8.46,8.46,1.37,1.37,-1.37,-0.99,-1.53,7.09,7.09,7.09
52.51,8.45,8.45,1.38,1.38,-1.38,-1.01,-1.55,7.08,7.07,7.07
53.03,8.43,8.44,1.38,1.38,-1.38,-1.02,-1.58,7.05,7.06,7.05
53.56,8.42,8.42,1.39,1.39,-1.38,-1.04,-1.61,7.04,7.04,7.03
54.10,8.40,8.40,1.39,1.39,-1.39,-1.05,-1.64,7.01,7.01,7.01
54.64,8.38,8.38,1.39,1.39,-1.40,-1.07,-1.67,6.99,6.99,6.99
55.18,8.36,8.36,1.40,1.40,-1.40,-1.08,-1.69,6.96,6.96,6.97
55.74,8.34,8.35,1.40,1.40,-1.41,-1.10,-1.72,6.94,6.94,6.94
56.29,8.33,8.33,1.41,1.41,-1.41,-1.12,-1.74,6.92,6.92,6.92
56.86,8.31,8.31,1.42,1.42,-1.42,-1.13,-1.77,6.90,6.90,6.89
57.42,8.29,8.29,1.42,1.43,-1.42,-1.15,-1.79,6.87,6.87,6.87
58.00,8.27,8.27,1.43,1.43,-1.43,-1.17,-1.81,6.85,6.85,6.84
58.58,8.24,8.25,1.43,1.43,-1.43,-1.19,-1.83,6.81,6.82,6.82
59.16,8.22,8.22,1.44,1.43,-1.43,-1.21,-1.85,6.79,6.79,6.79
59.76,8.19,8.20,1.44,1.44,-1.44,-1.23,-1.86,6.75,6.76,6.76
60.35,8.17,8.17,1.45,1.45,-1.45,-1.25,-1.88,6.73,6.73,6.73
60.96,8.15,8.15,1.46,1.45,-1.46,-1.28,-1.89,6.70,6.69,6.70
61.57,8.13,8.13,1.47,1.47,-1.47,-1.30,-1.90,6.66,6.66,6.67
62.18,8.11,8.12,1.48,1.48,-1.49,-1.32,-1.90,6.63,6.63,6.63
62.80,8.10,8.10,1.50,1.50,-1.50,-1.35,-1.91,6.60,6.60,6.60
63.43,8.08,8.09,1.52,1.52,-1.52,-1.37,-1.91,6.57,6.57,6.57
64.07,8.07,8.07,1.54,1.54,-1.53,-1.40,-1.91,6.54,6.54,6.53
64.71,8.05,8.05,1.56,1.56,-1.55,-1.43,-1.91,6.50,6.50,6.50
65.35,8.02,8.03,1.57,1.57,-1.57,-1.46,-1.90,6.46,6.46,6.46
66.01,8.00,8.00,1.58,1.58,-1.58,-1.48,-1.90,6.42,6.42,6.42
66.67,7.97,7.97,1.59,1.59,-1.59,-1.51,-1.89,6.38,6.38,6.38
67.33,7.94,7.95,1.60,1.61,-1.61,-1.54,-1.88,6.34,6.34,6.34
68.01,7.92,7.92,1.62,1.62,-1.62,-1.57,-1.87,6.30,6.30,6.30
68.69,7.89,7.89,1.64,1.64,-1.64,-1.61,-1.86,6.26,6.26,6.26
69.37,7.86,7.87,1.65,1.65,-1.65,-1.64,-1.84,6.21,6.21,6.21
70.07,7.84,7.84,1.67,1.67,-1.67,-1.67,-1.83,6.17,6.17,6.17
70.77,7.81,7.81,1.69,1.69,-1.69,-1.71,-1.81,6.12,6.12,6.13
71.48,7.78,7.79,1.70,1.71,-1.71,-1.74,-1.79,6.08,6.08,6.08
72.19,7.76,7.76,1.73,1.73,-1.73,-1.78,-1.78,6.04,6.03,6.03
72.91,7.73,7.73,1.75,1.75,-1.75,-1.81,-1.76,5.99,5.99,5.98
73.64,7.70,7.70,1.77,1.77,-1.77,-1.85,-1.74,5.94,5.94,5.93
74.38,7.67,7.67,1.79,1.79,-1.78,-1.88,-1.72,5.89,5.89,5.88
75.12,7.63,7.64,1.80,1.80,-1.80,-1.92,-1.70,5.83,5.83,5.83
75.87,7.60,7.60,1.82,1.82,-1.82,-1.96,-1.69,5.78,5.78,5.78
76.63,7.56,7.57,1.84,1.84,-1.84,-1.99,-1.67,5.72,5.72,5.73
77.40,7.53,7.53,1.86,1.86,-1.86,-2.03,-1.65,5.67,5.67,5.67
78.17,7.49,7.50,1.88,1.88,-1.88,-2.06,-1.63,5.61,5.62,5.62
78.95,7.46,7.46,1.90,1.90,-1.90,-2.10,-1.62,5.57,5.56,5.56
79.74,7.42,7.42,1.92,1.92,-1.92,-2.13,-1.60,5.51,5.51,5.50
80.54,7.38,7.39,1.94,1.94,-1.94,-2.16,-1.59,5.45,5.45,5.45
81.35,7.34,7.34,1.96,1.96,-1.95,-2.20,-1.58,5.39,5.39,5.39
82.16,7.30,7.30,1.98,1.97,-1.97,-2.23,-1.56,5.33,5.33,5.33
82.98,7.25,7.26,1.99,1.99,-1.99,-2.26,-1.55,5.26,5.26,5.27
83.81,7.21,7.21,2.01,2.01,-2.01,-2.28,-1.54,5.20,5.20,5.20
84.65,7.16,7.17,2.02,2.03,-2.03,-2.31,-1.53,5.13,5.14,5.14
85.50,7.12,7.12,2.05,2.05,-2.05,-2.33,-1.52,5.07,5.07,5.08
86.35,7.08,7.08,2.07,2.07,-2.07,-2.35,-1.51,5.01,5.01,5.01
87.22,7.03,7.04,2.09,2.09,-2.09,-2.36,-1.51,4.95,4.95,4.95
88.09,6.99,6.99,2.11,2.11,-2.11,-2.38,-1.50,4.89,4.88,4.88
88.97,6.94,6.94,2.13,2.13,-2.12,-2.39,-1.50,4.82,4.82,4.82
89.86,6.88,6.89,2.14,2.14,-2.14,-2.39,-1.50,4.75,4.75,4.75
90.76,6.83,6.83,2.15,2.15,-2.15,-2.40,-1.50,4.68,4.68,4.68
91.66,6.77,6.77,2.16,2.16,-2.16,-2.40,-1.50,4.61,4.61,4.61
92.58,6.71,6.71,2.17,2.17,-2.17,-2.39,-1.50,4.54,4.54,4.54
93.51,6.65,6.65,2.18,2.18,-2.18,-2.38,-1.50,4.47,4.47,4.47
94.44,6.58,6.59,2.18,2.19,-2.19,-2.37,-1.50,4.39,4.40,4.40
95.39,6.52,6.52,2.19,2.19,-2.20,-2.36,-1.51,4.32,4.32,4.33
96.34,6.46,6.46,2.20,2.20,-2.21,-2.34,-1.51,4.25,4.25,4.26
97.30,6.40,6.40,2.21,2.22,-2.22,-2.32,-1.52,4.19,4.19,4.19
98.28,6.34,6.35,2.23,2.23,-2.22,-2.29,-1.52,4.12,4.12,4.12
99.26,6.28,6.28,2.24,2.24,-2.22,-2.27,-1.53,4.06,4.06,4.04
100.25,6.21,6.21,2.24,2.24,-2.22,-2.23,-1.54,3.99,3.99,3.97
101.25,6.12,6.13,2.22,2.23,-2.22,-2.20,-1.55,3.90,3.91,3.90
102.27,6.04,6.04,2.22,2.21,-2.22,-2.16,-1.56,3.83,3.82,3.83
103.29,5.95,5.96,2.20,2.20,-2.21,-2.13,-1.57,3.74,3.74,3.75
104.32,5.87,5.88,2.19,2.20,-2.21,-2.09,-1.58,3.66,3.67,3.68
105.37,5.80,5.80,2.20,2.19,-2.21,-2.04,-1.59,3.60,3.59,3.61
106.42,5.73,5.74,2.20,2.20,-2.21,-2.00,-1.60,3.52,3.53,3.53
107.48,5.67,5.67,2.21,2.21,-2.21,-1.96,-1.61,3.46,3.46,3.46
108.56,5.61,5.61,2.23,2.22,-2.22,-1.91,-1.62,3.40,3.39,3.39
109.64,5.54,5.55,2.23,2.23,-2.22,-1.86,-1.63,3.32,3.32,3.32
110.74,5.47,5.47,2.23,2.23,-2.22,-1.82,-1.64,3.25,3.25,3.24
111.85,5.40,5.40,2.23,2.23,-2.22,-1.77,-1.64,3.18,3.17,3.17
112.97,5.31,5.32,2.22,2.22,-2.22,-1.72,-1.65,3.09,3.10,3.10
114.10,5.23,5.24,2.21,2.21,-2.21,-1.67,-1.66,3.02,3.02,3.03
115.24,5.15,5.15,2.20,2.19,-2.20,-1.62,-1.66,2.95,2.95,2.96
116.39,5.06,5.07,2.18,2.18,-2.18,-1.58,-1.67,2.88,2.88,2.89
117.55,4.98,4.98,2.17,2.17,-2.17,-1.53,-1.67,2.82,2.81,2.81
118.73,4.89,4.89,2.15,2.15,-2.15,-1.48,-1.67,2.75,2.75,2.74
119.92,4.79,4.80,2.12,2.12,-2.12,-1.43,-1.67,2.67,2.68,2.68
121.12,4.70,4.70,2.10,2.09,-2.09,-1.39,-1.66,2.61,2.61,2.61
122.33,4.60,4.60,2.07,2.06,-2.06,-1.34,-1.66,2.54,2.54,2.54
123.55,4.49,4.50,2.02,2.03,-2.03,-1.30,-1.65,2.47,2.47,2.47
124.79,4.39,4.39,1.99,1.99,-1.99,-1.25,-1.64,2.41,2.40,2.40
126.03,4.28,4.28,1.95,1.94,-1.94,-1.21,-1.63,2.34,2.34,2.34
127.29,4.16,4.17,1.89,1.90,-1.90,-1.16,-1.62,2.27,2.27,2.27
128.57,4.05,4.05,1.85,1.84,-1.85,-1.12,-1.60,2.21,2.20,2.21
129.85,3.93,3.94,1.79,1.79,-1.80,-1.08,-1.58,2.14,2.14,2.14
131.15,3.82,3.82,1.74,1.74,-1.74,-1.04,-1.56,2.08,2.08,2.08
132.46,3.70,3.70,1.68,1.68,-1.68,-0.99,-1.54,2.02,2.02,2.02
133.79,3.57,3.58,1.62,1.62,-1.62,-0.95,-1.52,1.96,1.96,1.96
135.12,3.45,3.45,1.56,1.55,-1.55,-0.91,-1.49,1.90,1.90,1.90
136.48,3.32,3.32,1.49,1.48,-1.48,-0.87,-1.47,1.84,1.84,1.84
137.84,3.18,3.19,1.40,1.41,-1.41,-0.83,-1.44,1.78,1.78,1.78
139.22,3.05,3.05,1.33,1.33,-1.34,-0.79,-1.41,1.72,1.72,1.72
140.61,2.92,2.92,1.26,1.26,-1.27,-0.75,-1.38,1.65,1.66,1.66
142.02,2.80,2.80,1.19,1.19,-1.20,-0.72,-1.35,1.60,1.60,1.61
143.44,2.67,2.68,1.12,1.13,-1.14,-0.68,-1.31,1.54,1.54,1.55
144.87,2.56,2.56,1.06,1.06,-1.07,-0.64,-1.28,1.49,1.49,1.50
146.32,2.45,2.45,1.01,1.00,-1.00,-0.60,-1.24,1.45,1.45,1.45
147.78,2.33,2.34,0.94,0.94,-0.93,-0.56,-1.21,1.40,1.41,1.40
149.26,2.22,2.22,0.88,0.87,-0.85,-0.52,-1.17,1.37,1.36,1.35
150.75,2.08,2.08,0.79,0.79,-0.77,-0.48,-1.14,1.31,1.31,1.30
152.26,1.94,1.94,0.70,0.69,-0.69,-0.44,-1.10,1.26,1.26,1.25
153.78,1.79,1.79,0.59,0.59,-0.60,-0.40,-1.07,1.20,1.20,1.20
155.32,1.64,1.65,0.49,0.49,-0.50,-0.36,-1.03,1.14,1.14,1.15
156.88,1.50,1.50,0.40,0.39,-0.41,-0.32,-0.99,1.10,1.10,1.11
158.44,1.36,1.37,0.30,0.30,-0.31,-0.27,-0.96,1.05,1.05,1.06
160.03,1.23,1.23,0.21,0.22,-0.22,-0.23,-0.92,1.02,1.01,1.02
161.63,1.10,1.10,0.14,0.13,-0.13,-0.18,-0.88,0.98,0.98,0.97
163.24,0.97,0.97,0.05,0.05,-0.04,-0.13,-0.85,0.94,0.94,0.93
164.88,0.84,0.84,-0.04,-0.04,0.05,-0.08,-0.81,0.89,0.89,0.89
166.53,0.71,0.71,-0.13,-0.13,0.14,-0.03,-0.78,0.85,0.85,0.85
168.19,0.58,0.59,-0.23,-0.22,0.22,0.02,-0.74,0.81,0.81,0.81
169.87,0.46,0.46,-0.31,-0.31,0.31,0.07,-0.71,0.77,0.77,0.77
171.57,0.34,0.34,-0.39,-0.39,0.39,0.13,-0.67,0.73,0.73,0.74
173.29,0.23,0.23,-0.47,-0.47,0.47,0.19,-0.64,0.70,0.70,0.70
175.02,0.12,0.12,-0.54,-0.54,0.54,0.25,-0.61,0.66,0.66,0.67
176.77,0.02,0.02,-0.61,-0.61,0.61,0.32,-0.57,0.63,0.63,0.63
178.54,-0.08,-0.07,-0.68,-0.67,0.67,0.38,-0.54,0.59,0.59,0.60
180.32,-0.16,-0.16,-0.72,-0.72,0.72,0.45,-0.51,0.57,0.57,0.57
182.13,-0.24,-0.24,-0.77,-0.77,0.77,0.52,-0.48,0.54,0.54,0.54
183.95,-0.31,-0.31,-0.81,-0.82,0.82,0.59,-0.45,0.52,0.51,0.51
185.79,-0.39,-0.38,-0.86,-0.86,0.87,0.66,-0.42,0.48,0.48,0.48
187.65,-0.45,-0.45,-0.90,-0.90,0.90,0.73,-0.39,0.46,0.45,0.45
189.52,-0.52,-0.52,-0.94,-0.94,0.94,0.79,-0.36,0.42,0.42,0.42
191.42,-0.58,-0.57,-0.97,-0.97,0.97,0.86,-0.33,0.39,0.39,0.39
193.33,-0.63,-0.63,-1.00,-0.99,0.99,0.91,-0.30,0.36,0.36,0.37
195.27,-0.67,-0.67,-1.01,-1.01,1.01,0.96,-0.27,0.34,0.34,0.34
197.22,-0.70,-0.70,-1.02,-1.02,1.02,1.00,-0.24,0.32,0.32,0.32
199.19,-0.73,-0.73,-1.02,-1.02,1.02,1.04,-0.21,0.29,0.30,0.30
201.18,-0.75,-0.74,-1.02,-1.02,1.02,1.05,-0.19,0.27,0.27,0.27
203.19,-0.76,-0.76,-1.01,-1.01,1.00,1.07,-0.16,0.25,0.25,0.25
205.23,-0.76,-0.76,-0.99,-0.99,0.99,1.06,-0.14,0.23,0.23,0.23
207.28,-0.76,-0.75,-0.96,-0.96,0.96,1.05,-0.11,0.20,0.21,0.21
209.35,-0.74,-0.74,-0.92,-0.93,0.93,1.02,-0.09,0.19,0.19,0.19
211.44,-0.73,-0.73,-0.90,-0.89,0.89,0.98,-0.06,0.17,0.17,0.17
213.56,-0.71,-0.70,-0.86,-0.85,0.86,0.93,-0.04,0.15,0.15,0.15
215.69,-0.68,-0.68,-0.81,-0.81,0.81,0.88,-0.02,0.14,0.13,0.13
217.85,-0.65,-0.65,-0.76,-0.76,0.77,0.81,0.00,0.12,0.12,0.11
220.03,-0.63,-0.62,-0.72,-0.72,0.72,0.75,0.02,0.10,0.10,0.10
222.23,-0.59,-0.59,-0.67,-0.67,0.67,0.68,0.04,0.09,0.08,0.08
224.45,-0.56,-0.56,-0.62,-0.62,0.62,0.60,0.06,0.06,0.06,0.06
226.70,-0.52,-0.52,-0.57,-0.57,0.56,0.53,0.07,0.05,0.05,0.05
228.96,-0.48,-0.48,-0.51,-0.51,0.50,0.46,0.09,0.03,0.03,0.03
231.25,-0.43,-0.43,-0.45,-0.45,0.44,0.38,0.10,0.01,0.01,0.02
233.57,-0.38,-0.37,-0.38,-0.38,0.38,0.31,0.11,0.00,0.00,0.01
235.90,-0.32,-0.32,-0.30,-0.31,0.31,0.23,0.12,-0.00,-0.01,-0.02
238.26,-0.27,-0.27,-0.24,-0.24,0.25,0.16,0.13,-0.02,-0.02,-0.03
240.64,-0.22,-0.22,-0.17,-0.17,0.18,0.09,0.14,-0.03,-0.03,-0.04
243.05,-0.17,-0.17,-0.11,-0.11,0.12,0.02,0.14,-0.05,-0.05,-0.06
245.48,-0.12,-0.12,-0.05,-0.05,0.05,-0.04,0.15,-0.07,-0.07,-0.07
247.93,-0.07,-0.06,0.01,0.01,-0.03,-0.11,0.15,-0.09,-0.09,-0.08
250.41,-0.01,-0.00,0.08,0.09,-0.10,-0.18,0.15,-0.11,-0.10,-0.09
252.92,0.06,0.07,0.16,0.17,-0.18,-0.24,0.15,-0.11,-0.11,-0.10
255.45,0.14,0.14,0.25,0.25,-0.25,-0.31,0.14,-0.11,-0.11,-0.11
258.00,0.22,0.22,0.34,0.34,-0.33,-0.37,0.14,-0.11,-0.11,-0.12
260.58,0.29,0.29,0.42,0.42,-0.41,-0.44,0.13,-0.12,-0.12,-0.13
263.19,0.36,0.36,0.50,0.50,-0.49,-0.50,0.12,-0.13,-0.13,-0.14
265.82,0.42,0.42,0.57,0.57,-0.57,-0.57,0.11,-0.15,-0.15,-0.15
268.48,0.48,0.48,0.64,0.64,-0.64,-0.63,0.10,-0.16,-0.16,-0.16
271.16,0.54,0.54,0.71,0.71,-0.71,-0.70,0.09,-0.17,-0.17,-0.16
273.87,0.60,0.60,0.78,0.78,-0.78,-0.77,0.07,-0.17,-0.17,-0.17
276.61,0.66,0.66,0.84,0.84,-0.84,-0.83,0.06,-0.17,-0.18,-0.18
279.38,0.71,0.71,0.90,0.90,-0.90,-0.89,0.04,-0.18,-0.18,-0.19
282.17,0.76,0.76,0.96,0.96,-0.96,-0.96,0.02,-0.19,-0.19,-0.19
284.99,0.81,0.81,1.00,1.00,-1.01,-1.02,-0.00,-0.20,-0.20,-0.19
287.84,0.86,0.87,1.05,1.06,-1.06,-1.08,-0.02,-0.20,-0.19,-0.19
290.72,0.91,0.91,1.11,1.11,-1.11,-1.13,-0.05,-0.19,-0.19,-0.19
293.63,0.96,0.96,1.16,1.15,-1.15,-1.18,-0.07,-0.19,-0.19,-0.20
296.57,0.99,1.00,1.19,1.20,-1.19,-1.23,-0.09,-0.20,-0.19,-0.20
299.53,1.03,1.03,1.23,1.23,-1.23,-1.27,-0.12,-0.19,-0.19,-0.19
302.53,1.06,1.06,1.26,1.26,-1.26,-1.30,-0.15,-0.20,-0.20,-0.20
305.55,1.09,1.10,1.29,1.29,-1.29,-1.33,-0.17,-0.20,-0.20,-0.19
308.61,1.12,1.12,1.32,1.32,-1.32,-1.35,-0.20,-0.20,-0.20,-0.20
311.69,1.15,1.15,1.35,1.35,-1.35,-1.37,-0.23,-0.19,-0.19,-0.19
314.81,1.17,1.17,1.37,1.37,-1.37,-1.38,-0.26,-0.20,-0.20,-0.20
317.96,1.19,1.20,1.39,1.39,-1.39,-1.38,-0.29,-0.20,-0.20,-0.19
321.14,1.21,1.22,1.41,1.41,-1.42,-1.39,-0.32,-0.20,-0.20,-0.20
324.35,1.24,1.24,1.43,1.43,-1.43,-1.39,-0.35,-0.19,-0.19,-0.19
327.59,1.26,1.27,1.45,1.45,-1.45,-1.39,-0.38,-0.19,-0.19,-0.19
330.87,1.28,1.28,1.47,1.47,-1.47,-1.39,-0.41,-0.18,-0.18,-0.19
334.18,1.30,1.30,1.49,1.48,-1.48,-1.39,-0.45,-0.17,-0.18,-0.18
337.52,1.30,1.31,1.49,1.49,-1.49,-1.39,-0.48,-0.19,-0.18,-0.19
340.90,1.31,1.32,1.49,1.49,-1.50,-1.39,-0.51,-0.18,-0.18,-0.18
344.30,1.32,1.32,1.50,1.50,-1.50,-1.39,-0.55,-0.18,-0.18,-0.17
347.75,1.33,1.33,1.50,1.50,-1.51,-1.40,-0.58,-0.17,-0.17,-0.17
351.23,1.34,1.34,1.51,1.51,-1.51,-1.40,-0.62,-0.16,-0.16,-0.17
354.74,1.35,1.35,1.51,1.51,-1.51,-1.42,-0.65,-0.15,-0.16,-0.15
358.28,1.35,1.35,1.51,1.51,-1.51,-1.43,-0.69,-0.15,-0.15,-0.16
361.87,1.35,1.35,1.50,1.50,-1.50,-1.45,-0.73,-0.15,-0.15,-0.15
365.49,1.35,1.35,1.50,1.50,-1.50,-1.47,-0.77,-0.15,-0.15,-0.14
369.14,1.35,1.35,1.50,1.49,-1.49,-1.49,-0.80,-0.14,-0.14,-0.14
372.83,1.35,1.35,1.48,1.49,-1.49,-1.51,-0.84,-0.13,-0.13,-0.13
376.56,1.35,1.35,1.48,1.48,-1.48,-1.54,-0.88,-0.13,-0.13,-0.13
380.33,1.35,1.35,1.48,1.47,-1.47,-1.57,-0.92,-0.12,-0.12,-0.12
384.13,1.34,1.35,1.47,1.47,-1.47,-1.60,-0.96,-0.12,-0.12,-0.12
387.97,1.34,1.35,1.46,1.46,-1.46,-1.63,-1.00,-0.12,-0.11,-0.12
391.85,1.35,1.35,1.45,1.45,-1.46,-1.67,-1.04,-0.10,-0.11,-0.10
395.77,1.35,1.36,1.45,1.45,-1.46,-1.70,-1.08,-0.10,-0.10,-0.10
399.73,1.36,1.36,1.46,1.45,-1.46,-1.73,-1.12,-0.10,-0.10,-0.09
403.72,1.37,1.37,1.46,1.46,-1.46,-1.77,-1.16,-0.09,-0.09,-0.08
407.76,1.38,1.39,1.47,1.47,-1.47,-1.80,-1.20,-0.09,-0.08,-0.09
411.84,1.40,1.40,1.48,1.48,-1.48,-1.83,-1.24,-0.07,-0.08,-0.08
415.96,1.41,1.42,1.48,1.49,-1.49,-1.86,-1.28,-0.07,-0.07,-0.07
420.12,1.43,1.43,1.50,1.50,-1.49,-1.89,-1.31,-0.06,-0.06,-0.07
424.32,1.44,1.44,1.51,1.51,-1.50,-1.91,-1.35,-0.06,-0.06,-0.06
428.56,1.45,1.45,1.51,1.51,-1.50,-1.93,-1.39,-0.05,-0.05,-0.05
432.85,1.46,1.46,1.51,1.51,-1.51,-1.95,-1.42,-0.04,-0.05,-0.05
437.18,1.46,1.47,1.51,1.51,-1.51,-1.96,-1.46,-0.04,-0.04,-0.05
441.55,1.47,1.47,1.51,1.51,-1.51,-1.97,-1.49,-0.04,-0.04,-0.04
445.96,1.48,1.48,1.51,1.51,-1.52,-1.97,-1.52,-0.03,-0.03,-0.03
450.42,1.49,1.50,1.50,1.51,-1.52,-1.96,-1.55,-0.03,-0.02,-0.01
454.93,1.52,1.52,1.53,1.53,-1.53,-1.95,-1.58,-0.01,-0.01,-0.00
459.48,1.55,1.55,1.55,1.55,-1.55,-1.93,-1.60,0.01,0.00,0.01
464.07,1.57,1.58,1.57,1.57,-1.56,-1.90,-1.62,0.01,0.01,0.01
468.71,1.60,1.60,1.59,1.59,-1.58,-1.87,-1.64,0.02,0.02,0.01
473.40,1.62,1.63,1.60,1.60,-1.60,-1.84,-1.66,0.02,0.02,0.02
478.13,1.65,1.65,1.62,1.62,-1.63,-1.80,-1.67,0.03,0.03,0.03
482.91,1.68,1.68,1.64,1.64,-1.65,-1.75,-1.68,0.04,0.04,0.04
487.74,1.71,1.72,1.66,1.67,-1.67,-1.70,-1.68,0.04,0.05,0.05
492.62,1.75,1.75,1.69,1.69,-1.69,-1.65,-1.69,0.07,0.06,0.06
497.55,1.78,1.78,1.72,1.71,-1.70,-1.60,-1.69,0.08,0.08,0.07
502.52,1.80,1.81,1.73,1.73,-1.72,-1.54,-1.68,0.08,0.09,0.08
507.55,1.83,1.83,1.74,1.74,-1.74,-1.48,-1.67,0.10,0.09,0.10
512.62,1.85,1.85,1.75,1.74,-1.75,-1.42,-1.66,0.10,0.10,0.11
517.75,1.86,1.87,1.75,1.75,-1.76,-1.36,-1.65,0.10,0.11,0.12
522.93,1.88,1.88,1.76,1.76,-1.77,-1.30,-1.63,0.12,0.12,0.12
