frequency,raw,smoothed,error,error_smoothed,equalization,parametric_eq,fixed_band_eq,equalized_raw,equalized_smoothed,target
20.00,3.86,3.86,-2.52,-2.52,2.52,1.00,0.46,6.38,6.38,6.38
20.20,3.93,3.93,-2.45,-2.45,2.45,1.00,0.48,6.38,6.38,6.38
20.40,4.00,4.00,-2.38,-2.38,2.38,1.00,0.49,6.38,6.38,6.38
20.61,4.06,4.06,-2.32,-2.32,2.32,1.00,0.50,6.37,6.38,6.38
20.81,4.12,4.12,-2.26,-2.25,2.25,1.00,0.52,6.37,6.38,6.38
21.02,4.18,4.18,-2.20,-2.20,2.19,0.99,0.54,6.37,6.37,6.37
21.23,4.24,4.24,-2.13,-2.14,2.14,0.99,0.55,6.38,6.37,6.37
21.44,4.29,4.29,-2.08,-2.08,2.08,0.99,0.57,6.37,6.37,6.37
21.66,4.35,4.35,-2.02,-2.03,2.03,0.99,0.59,6.38,6.37,6.37
21.87,4.40,4.40,-1.97,-1.98,1.98,0.99,0.60,6.37,6.37,6.37
22.09,4.44,4.44,-1.93,-1.93,1.93,0.98,0.62,6.37,6.37,6.37
22.31,4.49,4.49,-1.88,-1.88,1.88,0.98,0.64,6.37,6.37,6.37
22.54,4.54,4.54,-1.83,-1.83,1.83,0.98,0.66,6.37,6.37,6.37
22.76,4.58,4.58,-1.79,-1.79,1.79,0.98,0.68,6.37,6.37,6.37
22.99,4.62,4.62,-1.75,-1.75,1.75,0.98,0.70,6.37,6.37,6.37
23.22,4.66,4.66,-1.71,-1.71,1.71,0.97,0.72,6.37,6.37,6.37
23.45,4.70,4.70,-1.67,-1.67,1.67,0.97,0.74,6.37,6.37,6.36
23.69,4.73,4.73,-1.63,-1.63,1.63,0.97,0.76,6.36,6.36,6.36
23.92,4.76,4.76,-1.60,-1.60,1.60,0.97,0.78,6.36,6.36,6.36
24.16,4.80,4.80,-1.56,-1.57,1.56,0.96,0.81,6.36,6.36,6.36
24.40,4.83,4.83,-1.53,-1.53,1.53,0.96,0.83,6.36,6.36,6.36
24.65,4.86,4.86,-1.50,-1.50,1.50,0.96,0.85,6.35,6.36,6.36
24.89,4.90,4.90,-1.46,-1.46,1.46,0.95,0.87,6.36,6.36,6.36
25.14,4.93,4.93,-1.43,-1.43,1.43,0.95,0.90,6.36,6.36,6.36
25.39,4.96,4.96,-1.40,-1.40,1.40,0.95,0.92,6.36,6.36,6.35
25.65,4.99,4.99,-1.36,-1.36,1.36,0.94,0.94,6.35,6.35,6.35
25.91,5.02,5.02,-1.33,-1.33,1.33,0.94,0.97,6.35,6.35,6.35
26.16,5.06,5.05,-1.29,-1.30,1.29,0.94,0.99,6.35,6.35,6.35
26.43,5.09,5.09,-1.26,-1.26,1.26,0.93,1.01,6.35,6.35,6.35
26.69,5.12,5.12,-1.23,-1.22,1.22,0.93,1.04,6.34,6.35,6.35
26.96,5.16,5.16,-1.19,-1.19,1.19,0.93,1.06,6.35,6.34,6.35
27.23,5.19,5.19,-1.15,-1.15,1.15,0.92,1.08,6.34,6.34,6.34
27.50,5.23,5.23,-1.11,-1.11,1.11,0.92,1.10,6.34,6.34,6.34
27.77,5.26,5.26,-1.08,-1.08,1.08,0.91,1.12,6.34,6.34,6.34
28.05,5.30,5.30,-1.04,-1.04,1.04,0.91,1.14,6.34,6.34,6.34
28.33,5.33,5.33,-1.01,-1.01,1.01,0.90,1.16,6.34,6.34,6.34
28.62,5.36,5.36,-0.97,-0.97,0.97,0.90,1.17,6.33,6.33,6.33
28.90,5.39,5.39,-0.94,-0.94,0.94,0.90,1.19,6.33,6.33,6.33
29.19,5.42,5.42,-0.91,-0.91,0.91,0.89,1.20,6.33,6.33,6.33
29.48,5.45,5.45,-0.88,-0.88,0.88,0.88,1.21,6.33,6.33,6.33
29.78,5.48,5.48,-0.84,-0.85,0.85,0.88,1.23,6.33,6.33,6.32
30.08,5.50,5.50,-0.82,-0.82,0.82,0.87,1.23,6.32,6.32,6.32
30.38,5.52,5.52,-0.80,-0.80,0.80,0.87,1.24,6.32,6.32,6.32
30.68,5.54,5.54,-0.78,-0.78,0.77,0.86,1.25,6.31,6.31,6.32
30.99,5.56,5.56,-0.75,-0.75,0.75,0.85,1.25,6.31,6.31,6.31
31.30,5.58,5.58,-0.73,-0.73,0.73,0.85,1.25,6.31,6.31,6.31
31.61,5.59,5.59,-0.72,-0.71,0.71,0.84,1.25,6.30,6.31,6.31
31.93,5.61,5.61,-0.69,-0.70,0.70,0.83,1.25,6.31,6.30,6.30
32.24,5.62,5.62,-0.68,-0.68,0.68,0.83,1.25,6.30,6.30,6.30
32.57,5.63,5.63,-0.67,-0.67,0.67,0.82,1.24,6.30,6.30,6.30
32.89,5.64,5.64,-0.65,-0.65,0.65,0.81,1.23,6.29,6.29,6.29
33.22,5.65,5.65,-0.64,-0.64,0.64,0.80,1.23,6.29,6.29,6.29
33.55,5.66,5.66,-0.63,-0.63,0.63,0.79,1.21,6.29,6.28,6.28
33.89,5.66,5.66,-0.62,-0.62,0.62,0.78,1.20,6.28,6.28,6.28
34.23,5.67,5.67,-0.61,-0.61,0.60,0.78,1.19,6.27,6.27,6.28
34.57,5.68,5.68,-0.59,-0.59,0.59,0.77,1.17,6.27,6.27,6.27
34.92,5.69,5.69,-0.58,-0.58,0.58,0.76,1.16,6.27,6.27,6.27
35.27,5.70,5.70,-0.56,-0.56,0.56,0.75,1.14,6.26,6.26,6.26
35.62,5.71,5.71,-0.55,-0.55,0.55,0.74,1.13,6.26,6.26,6.26
35.97,5.72,5.72,-0.53,-0.53,0.53,0.72,1.11,6.25,6.25,6.25
36.33,5.73,5.73,-0.52,-0.52,0.52,0.71,1.09,6.25,6.25,6.25
36.70,5.74,5.74,-0.50,-0.50,0.51,0.70,1.07,6.24,6.24,6.24
37.06,5.75,5.75,-0.49,-0.49,0.49,0.69,1.05,6.24,6.24,6.24
37.43,5.75,5.75,-0.48,-0.48,0.48,0.68,1.03,6.23,6.23,6.23
37.81,5.75,5.75,-0.48,-0.47,0.47,0.67,1.01,6.22,6.22,6.22
38.19,5.76,5.76,-0.46,-0.46,0.46,0.66,0.99,6.22,6.22,6.22
38.57,5.76,5.76,-0.45,-0.45,0.45,0.64,0.97,6.21,6.21,6.21
38.95,5.76,5.76,-0.45,-0.45,0.45,0.63,0.95,6.21,6.21,6.21
39.34,5.76,5.76,-0.44,-0.44,0.44,0.62,0.93,6.20,6.20,6.20
39.74,5.75,5.75,-0.44,-0.44,0.44,0.61,0.91,6.19,6.19,6.19
40.14,5.75,5.75,-0.43,-0.43,0.43,0.60,0.89,6.18,6.18,6.18
40.54,5.75,5.75,-0.43,-0.43,0.43,0.59,0.87,6.18,6.17,6.18
40.94,5.74,5.74,-0.43,-0.42,0.43,0.58,0.85,6.17,6.17,6.17
41.35,5.74,5.74,-0.42,-0.42,0.42,0.57,0.83,6.16,6.16,6.16
41.76,5.73,5.73,-0.42,-0.42,0.42,0.56,0.82,6.15,6.15,6.15
42.18,5.72,5.72,-0.42,-0.42,0.42,0.55,0.80,6.14,6.14,6.14
42.60,5.71,5.71,-0.42,-0.42,0.42,0.54,0.78,6.13,6.13,6.13
43.03,5.70,5.70,-0.42,-0.42,0.42,0.53,0.77,6.12,6.12,6.12
43.46,5.70,5.70,-0.41,-0.42,0.41,0.52,0.75,6.11,6.11,6.11
43.90,5.69,5.69,-0.41,-0.41,0.41,0.52,0.74,6.10,6.10,6.10
44.33,5.68,5.68,-0.41,-0.41,0.41,0.51,0.72,6.09,6.09,6.09
44.78,5.67,5.67,-0.41,-0.41,0.41,0.51,0.71,6.08,6.08,6.08
45.23,5.66,5.66,-0.41,-0.41,0.41,0.50,0.70,6.07,6.07,6.07
45.68,5.65,5.65,-0.41,-0.41,0.41,0.50,0.68,6.06,6.06,6.06
46.13,5.63,5.63,-0.41,-0.41,0.41,0.50,0.67,6.04,6.04,6.04
46.60,5.62,5.62,-0.41,-0.41,0.41,0.50,0.66,6.03,6.03,6.03
47.06,5.60,5.60,-0.42,-0.41,0.41,0.50,0.65,6.01,6.02,6.02
47.53,5.59,5.59,-0.41,-0.42,0.42,0.50,0.64,6.01,6.00,6.00
48.01,5.57,5.57,-0.42,-0.42,0.42,0.50,0.63,5.99,5.99,5.99
48.49,5.55,5.55,-0.42,-0.42,0.42,0.50,0.62,5.97,5.97,5.97
48.97,5.54,5.54,-0.42,-0.42,0.42,0.50,0.61,5.96,5.96,5.96
49.46,5.52,5.52,-0.42,-0.42,0.42,0.51,0.60,5.94,5.94,5.94
49.96,5.50,5.50,-0.43,-0.43,0.43,0.51,0.59,5.93,5.93,5.93
50.46,5.48,5.48,-0.43,-0.43,0.43,0.51,0.59,5.91,5.91,5.91
50.96,5.46,5.46,-0.43,-0.43,0.43,0.51,0.58,5.89,5.89,5.89
51.47,5.44,5.44,-0.43,-0.44,0.44,0.52,0.57,5.88,5.88,5.87
51.99,5.41,5.41,-0.45,-0.44,0.44,0.52,0.57,5.85,5.85,5.86
52.51,5.39,5.39,-0.45,-0.45,0.45,0.52,0.56,5.84,5.83,5.84
53.03,5.36,5.36,-0.46,-0.45,0.45,0.52,0.55,5.81,5.81,5.82
53.56,5.34,5.34,-0.46,-0.46,0.45,0.53,0.55,5.79,5.79,5.80
54.10,5.32,5.32,-0.45,-0.46,0.46,0.53,0.54,5.78,5.77,5.77
54.64,5.29,5.29,-0.46,-0.46,0.46,0.53,0.54,5.75,5.75,5.75
55.18,5.27,5.27,-0.46,-0.46,0.47,0.53,0.53,5.73,5.73,5.73
55.74,5.24,5.24,-0.47,-0.47,0.47,0.53,0.53,5.71,5.71,5.71
56.29,5.21,5.21,-0.47,-0.47,0.47,0.53,0.52,5.68,5.68,5.68
56.86,5.18,5.18,-0.48,-0.48,0.48,0.53,0.52,5.66,5.66,5.66
57.42,5.15,5.15,-0.48,-0.48,0.48,0.53,0.51,5.63,5.63,5.63
58.00,5.12,5.12,-0.49,-0.49,0.48,0.53,0.50,5.60,5.60,5.61
58.58,5.09,5.09,-0.49,-0.49,0.49,0.53,0.50,5.58,5.58,5.58
59.16,5.06,5.06,-0.49,-0.49,0.49,0.53,0.49,5.55,5.55,5.55
59.76,5.03,5.03,-0.49,-0.49,0.49,0.53,0.49,5.52,5.52,5.52
60.35,5.00,5.00,-0.49,-0.49,0.50,0.52,0.48,5.50,5.49,5.49
60.96,4.96,4.96,-0.50,-0.50,0.50,0.52,0.47,5.46,5.46,5.46
61.57,4.93,4.93,-0.50,-0.50,0.50,0.52,0.47,5.43,5.43,5.43
62.18,4.89,4.89,-0.51,-0.50,0.50,0.51,0.46,5.39,5.40,5.40
62.80,4.86,4.86,-0.50,-0.51,0.51,0.51,0.45,5.37,5.36,5.36
63.43,4.82,4.82,-0.51,-0.51,0.51,0.50,0.44,5.33,5.33,5.33
64.07,4.78,4.78,-0.51,-0.51,0.51,0.50,0.43,5.29,5.29,5.29
64.71,4.74,4.74,-0.52,-0.52,0.51,0.49,0.42,5.25,5.26,5.26
65.35,4.71,4.71,-0.51,-0.51,0.51,0.49,0.41,5.22,5.22,5.22
66.01,4.67,4.67,-0.51,-0.51,0.51,0.48,0.40,5.18,5.18,5.18
66.67,4.63,4.63,-0.51,-0.51,0.51,0.47,0.39,5.14,5.14,5.14
67.33,4.59,4.59,-0.51,-0.51,0.51,0.47,0.38,5.10,5.10,5.10
68.01,4.55,4.55,-0.51,-0.51,0.51,0.46,0.37,5.06,5.06,5.06
68.69,4.52,4.51,-0.50,-0.51,0.51,0.45,0.36,5.03,5.02,5.02
69.37,4.47,4.47,-0.51,-0.51,0.51,0.44,0.35,4.97,4.98,4.98
70.07,4.43,4.43,-0.50,-0.50,0.50,0.43,0.34,4.93,4.93,4.93
70.77,4.39,4.39,-0.50,-0.50,0.50,0.42,0.33,4.89,4.89,4.89
71.48,4.35,4.35,-0.49,-0.49,0.50,0.42,0.31,4.84,4.85,4.84
72.19,4.31,4.31,-0.49,-0.49,0.49,0.41,0.30,4.80,4.80,4.80
72.91,4.26,4.26,-0.49,-0.49,0.49,0.39,0.29,4.75,4.75,4.75
73.64,4.21,4.21,-0.49,-0.48,0.48,0.38,0.28,4.69,4.70,4.70
74.38,4.17,4.17,-0.48,-0.48,0.48,0.37,0.26,4.65,4.65,4.65
75.12,4.13,4.12,-0.47,-0.47,0.47,0.36,0.25,4.60,4.60,4.60
75.87,4.08,4.08,-0.46,-0.46,0.46,0.35,0.24,4.54,4.54,4.54
76.63,4.03,4.03,-0.46,-0.46,0.46,0.34,0.23,4.49,4.49,4.49
77.40,3.99,3.99,-0.45,-0.45,0.45,0.32,0.21,4.44,4.44,4.44
78.17,3.95,3.95,-0.43,-0.44,0.44,0.31,0.20,4.39,4.38,4.38
78.95,3.90,3.90,-0.43,-0.43,0.43,0.30,0.19,4.32,4.32,4.32
79.74,3.85,3.85,-0.42,-0.42,0.41,0.28,0.17,4.26,4.26,4.27
80.54,3.80,3.80,-0.41,-0.40,0.40,0.27,0.16,4.20,4.21,4.21
81.35,3.76,3.76,-0.39,-0.39,0.39,0.26,0.15,4.15,4.15,4.15
82.16,3.73,3.72,-0.36,-0.37,0.38,0.24,0.14,4.11,4.10,4.09
82.98,3.67,3.67,-0.36,-0.36,0.37,0.23,0.12,4.03,4.03,4.03
83.81,3.61,3.61,-0.36,-0.35,0.35,0.21,0.11,3.96,3.97,3.97
84.65,3.56,3.56,-0.34,-0.35,0.34,0.19,0.10,3.90,3.90,3.90
85.50,3.51,3.51,-0.33,-0.33,0.33,0.18,0.09,3.84,3.84,3.84
86.35,3.46,3.46,-0.32,-0.32,0.31,0.16,0.08,3.77,3.77,3.78
87.22,3.41,3.41,-0.30,-0.30,0.30,0.15,0.06,3.71,3.71,3.71
88.09,3.36,3.36,-0.29,-0.29,0.29,0.13,0.05,3.65,3.65,3.64
88.97,3.31,3.31,-0.27,-0.27,0.27,0.11,0.04,3.58,3.58,3.58
89.86,3.26,3.26,-0.25,-0.25,0.25,0.09,0.03,3.51,3.51,3.51
90.76,3.21,3.21,-0.23,-0.23,0.23,0.08,0.01,3.44,3.44,3.44
91.66,3.16,3.16,-0.22,-0.21,0.21,0.06,0.00,3.37,3.37,3.37
92.58,3.11,3.11,-0.20,-0.20,0.20,0.04,-0.01,3.30,3.30,3.30
93.51,3.06,3.06,-0.18,-0.18,0.18,0.02,-0.02,3.24,3.24,3.24
94.44,3.01,3.01,-0.16,-0.16,0.16,0.00,-0.03,3.16,3.17,3.16
95.39,2.96,2.96,-0.13,-0.13,0.14,-0.02,-0.05,3.09,3.09,3.09
96.34,2.91,2.91,-0.11,-0.11,0.11,-0.04,-0.06,3.02,3.02,3.02
97.30,2.86,2.86,-0.09,-0.09,0.09,-0.06,-0.07,2.95,2.95,2.95
98.28,2.81,2.81,-0.07,-0.07,0.07,-0.08,-0.08,2.88,2.88,2.88
99.26,2.76,2.76,-0.05,-0.05,0.05,-0.10,-0.09,2.81,2.81,2.81
100.25,2.71,2.71,-0.03,-0.03,0.03,-0.12,-0.10,2.73,2.73,2.73
101.25,2.66,2.66,-0.00,-0.00,0.00,-0.14,-0.12,2.66,2.66,2.66
102.27,2.61,2.61,0.02,0.02,-0.02,-0.16,-0.13,2.59,2.59,2.59
103.29,2.57,2.56,0.05,0.05,-0.04,-0.18,-0.14,2.52,2.52,2.52
104.32,2.51,2.51,0.07,0.07,-0.07,-0.20,-0.15,2.44,2.44,2.44
105.37,2.46,2.46,0.09,0.09,-0.09,-0.22,-0.16,2.37,2.37,2.37
106.42,2.41,2.41,0.11,0.11,-0.12,-0.24,-0.18,2.29,2.29,2.30
107.48,2.37,2.37,0.14,0.14,-0.14,-0.26,-0.19,2.23,2.22,2.22
108.56,2.32,2.32,0.17,0.17,-0.17,-0.28,-0.20,2.15,2.15,2.15
109.64,2.27,2.27,0.19,0.19,-0.19,-0.30,-0.21,2.08,2.08,2.08
110.74,2.22,2.22,0.21,0.22,-0.22,-0.33,-0.22,2.00,2.01,2.01
111.85,2.18,2.17,0.25,0.24,-0.24,-0.35,-0.24,1.94,1.93,1.93
112.97,2.13,2.13,0.27,0.27,-0.27,-0.37,-0.25,1.86,1.86,1.86
114.10,2.08,2.08,0.29,0.29,-0.29,-0.39,-0.26,1.79,1.79,1.79
115.24,2.04,2.04,0.32,0.32,-0.32,-0.41,-0.27,1.72,1.72,1.72
116.39,1.99,1.99,0.34,0.34,-0.34,-0.44,-0.29,1.64,1.65,1.65
117.55,1.95,1.95,0.37,0.37,-0.37,-0.46,-0.30,1.58,1.58,1.58
118.73,1.90,1.90,0.39,0.40,-0.40,-0.48,-0.31,1.50,1.51,1.51
119.92,1.87,1.86,0.43,0.43,-0.42,-0.50,-0.32,1.45,1.44,1.44
121.12,1.82,1.82,0.45,0.45,-0.45,-0.52,-0.34,1.37,1.37,1.37
122.33,1.78,1.78,0.48,0.48,-0.47,-0.55,-0.35,1.30,1.30,1.30
123.55,1.73,1.73,0.50,0.50,-0.50,-0.57,-0.36,1.23,1.23,1.23
124.79,1.69,1.69,0.52,0.52,-0.52,-0.59,-0.38,1.17,1.17,1.17
126.03,1.65,1.65,0.55,0.55,-0.55,-0.61,-0.39,1.10,1.10,1.10
127.29,1.61,1.61,0.57,0.57,-0.57,-0.64,-0.40,1.04,1.04,1.04
128.57,1.57,1.57,0.60,0.60,-0.60,-0.66,-0.42,0.97,0.97,0.97
129.85,1.53,1.53,0.62,0.62,-0.62,-0.68,-0.43,0.91,0.91,0.91
131.15,1.49,1.49,0.65,0.65,-0.65,-0.70,-0.44,0.84,0.84,0.84
132.46,1.46,1.46,0.68,0.67,-0.68,-0.72,-0.46,0.78,0.78,0.78
133.79,1.42,1.42,0.70,0.70,-0.70,-0.75,-0.47,0.72,0.72,0.72
135.12,1.39,1.39,0.73,0.73,-0.73,-0.77,-0.49,0.66,0.66,0.66
136.48,1.35,1.35,0.75,0.75,-0.75,-0.79,-0.50,0.60,0.60,0.60
137.84,1.32,1.32,0.78,0.77,-0.77,-0.81,-0.52,0.55,0.54,0.54
139.22,1.28,1.28,0.80,0.80,-0.80,-0.83,-0.53,0.48,0.49,0.48
140.61,1.25,1.25,0.82,0.82,-0.82,-0.85,-0.55,0.43,0.43,0.43
142.02,1.22,1.21,0.85,0.84,-0.84,-0.88,-0.57,0.38,0.37,0.37
143.44,1.18,1.18,0.86,0.86,-0.87,-0.90,-0.58,0.31,0.31,0.32
144.87,1.15,1.15,0.89,0.89,-0.89,-0.92,-0.60,0.26,0.26,0.26
146.32,1.12,1.12,0.91,0.91,-0.91,-0.94,-0.62,0.21,0.21,0.21
147.78,1.10,1.10,0.94,0.94,-0.93,-0.96,-0.64,0.17,0.16,0.16
149.26,1.07,1.07,0.96,0.96,-0.96,-0.98,-0.66,0.11,0.11,0.11
150.75,1.04,1.04,0.98,0.98,-0.98,-1.00,-0.68,0.06,0.06,0.06
152.26,1.01,1.01,1.00,1.00,-1.00,-1.02,-0.70,0.01,0.01,0.01
153.78,0.98,0.98,1.02,1.02,-1.02,-1.04,-0.72,-0.04,-0.04,-0.04
155.32,0.96,0.96,1.04,1.04,-1.04,-1.06,-0.74,-0.08,-0.09,-0.08
156.88,0.93,0.93,1.06,1.06,-1.06,-1.08,-0.76,-0.13,-0.13,-0.13
158.44,0.91,0.91,1.08,1.08,-1.08,-1.10,-0.78,-0.17,-0.17,-0.17
160.03,0.89,0.88,1.11,1.10,-1.10,-1.12,-0.81,-0.22,-0.22,-0.22
161.63,0.86,0.86,1.13,1.13,-1.13,-1.14,-0.83,-0.27,-0.26,-0.27
163.24,0.84,0.84,1.15,1.15,-1.15,-1.16,-0.86,-0.31,-0.31,-0.31
164.88,0.82,0.82,1.17,1.17,-1.17,-1.18,-0.88,-0.35,-0.35,-0.35
166.53,0.80,0.80,1.19,1.19,-1.19,-1.20,-0.91,-0.39,-0.39,-0.39
168.19,0.78,0.78,1.21,1.21,-1.21,-1.22,-0.94,-0.43,-0.43,-0.43
169.87,0.76,0.76,1.22,1.23,-1.23,-1.23,-0.96,-0.47,-0.47,-0.47
171.57,0.74,0.74,1.24,1.24,-1.24,-1.25,-0.99,-0.51,-0.50,-0.50
173.29,0.73,0.72,1.27,1.26,-1.26,-1.27,-1.02,-0.53,-0.54,-0.54
175.02,0.71,0.71,1.28,1.28,-1.28,-1.29,-1.05,-0.57,-0.57,-0.57
176.77,0.69,0.69,1.29,1.30,-1.30,-1.30,-1.09,-0.61,-0.60,-0.61
178.54,0.68,0.68,1.32,1.31,-1.31,-1.32,-1.12,-0.64,-0.64,-0.64
180.32,0.66,0.66,1.33,1.33,-1.33,-1.34,-1.15,-0.67,-0.67,-0.67
182.13,0.65,0.65,1.35,1.35,-1.35,-1.36,-1.19,-0.70,-0.70,-0.70
183.95,0.63,0.63,1.36,1.36,-1.36,-1.37,-1.22,-0.73,-0.73,-0.73
185.79,0.62,0.62,1.38,1.38,-1.38,-1.39,-1.26,-0.76,-0.76,-0.76
187.65,0.61,0.61,1.40,1.40,-1.39,-1.40,-1.29,-0.79,-0.79,-0.79
189.52,0.60,0.60,1.41,1.41,-1.41,-1.42,-1.33,-0.81,-0.81,-0.82
191.42,0.58,0.58,1.42,1.42,-1.42,-1.43,-1.37,-0.85,-0.84,-0.84
193.33,0.57,0.57,1.44,1.44,-1.44,-1.45,-1.41,-0.87,-0.87,-0.87
195.27,0.56,0.56,1.45,1.45,-1.45,-1.46,-1.45,-0.89,-0.89,-0.89
197.22,0.55,0.55,1.47,1.47,-1.47,-1.48,-1.49,-0.92,-0.92,-0.92
199.19,0.54,0.54,1.48,1.48,-1.48,-1.49,-1.53,-0.94,-0.94,-0.94
201.18,0.53,0.53,1.49,1.49,-1.49,-1.50,-1.57,-0.96,-0.96,-0.96
203.19,0.52,0.52,1.51,1.51,-1.50,-1.52,-1.61,-0.99,-0.99,-0.99
205.23,0.51,0.51,1.52,1.52,-1.52,-1.53,-1.65,-1.01,-1.01,-1.01
207.28,0.50,0.50,1.53,1.53,-1.53,-1.54,-1.69,-1.03,-1.03,-1.03
209.35,0.49,0.49,1.54,1.54,-1.54,-1.55,-1.73,-1.05,-1.05,-1.05
211.44,0.48,0.48,1.55,1.55,-1.55,-1.57,-1.77,-1.07,-1.07,-1.07
213.56,0.47,0.47,1.56,1.56,-1.56,-1.58,-1.81,-1.09,-1.09,-1.09
215.69,0.46,0.46,1.56,1.57,-1.57,-1.59,-1.85,-1.11,-1.11,-1.11
217.85,0.46,0.45,1.58,1.58,-1.58,-1.60,-1.88,-1.12,-1.12,-1.12
220.03,0.45,0.45,1.59,1.59,-1.59,-1.61,-1.92,-1.14,-1.14,-1.14
222.23,0.44,0.44,1.60,1.60,-1.60,-1.62,-1.95,-1.16,-1.16,-1.16
224.45,0.44,0.44,1.61,1.61,-1.61,-1.63,-1.99,-1.17,-1.17,-1.17
226.70,0.43,0.43,1.62,1.62,-1.62,-1.64,-2.02,-1.19,-1.19,-1.19
228.96,0.43,0.43,1.63,1.63,-1.63,-1.64,-2.05,-1.20,-1.20,-1.20
231.25,0.42,0.42,1.64,1.64,-1.64,-1.65,-2.07,-1.22,-1.22,-1.22
233.57,0.41,0.41,1.64,1.65,-1.65,-1.66,-2.10,-1.24,-1.24,-1.23
235.90,0.40,0.40,1.65,1.65,-1.65,-1.67,-2.12,-1.25,-1.25,-1.25
238.26,0.40,0.40,1.67,1.66,-1.66,-1.67,-2.14,-1.26,-1.26,-1.27
240.64,0.39,0.39,1.67,1.67,-1.67,-1.68,-2.15,-1.28,-1.28,-1.28
243.05,0.38,0.38,1.67,1.67,-1.67,-1.68,-2.17,-1.29,-1.29,-1.29
245.48,0.37,0.37,1.67,1.68,-1.68,-1.69,-2.18,-1.31,-1.30,-1.30
247.93,0.37,0.36,1.68,1.68,-1.68,-1.69,-2.18,-1.31,-1.32,-1.32
250.41,0.36,0.36,1.69,1.69,-1.69,-1.70,-2.19,-1.33,-1.33,-1.33
252.92,0.35,0.35,1.69,1.69,-1.69,-1.70,-2.19,-1.34,-1.34,-1.34
255.45,0.35,0.35,1.70,1.69,-1.69,-1.71,-2.18,-1.34,-1.35,-1.35
258.00,0.34,0.34,1.70,1.70,-1.70,-1.71,-2.18,-1.36,-1.36,-1.36
260.58,0.34,0.34,1.71,1.70,-1.70,-1.71,-2.17,-1.36,-1.37,-1.37
263.19,0.33,0.33,1.70,1.71,-1.71,-1.71,-2.15,-1.38,-1.38,-1.38
265.82,0.33,0.33,1.71,1.71,-1.72,-1.71,-2.14,-1.39,-1.39,-1.38
268.48,0.33,0.33,1.72,1.72,-1.73,-1.71,-2.12,-1.40,-1.40,-1.39
271.16,0.33,0.33,1.73,1.73,-1.73,-1.71,-2.10,-1.40,-1.40,-1.40
273.87,0.33,0.33,1.74,1.74,-1.74,-1.71,-2.08,-1.41,-1.41,-1.41
276.61,0.34,0.34,1.76,1.75,-1.75,-1.71,-2.05,-1.41,-1.41,-1.42
279.38,0.34,0.34,1.76,1.76,-1.76,-1.71,-2.02,-1.42,-1.42,-1.42
282.17,0.34,0.34,1.77,1.77,-1.76,-1.71,-1.99,-1.42,-1.42,-1.43
284.99,0.34,0.34,1.77,1.77,-1.77,-1.71,-1.96,-1.43,-1.43,-1.43
287.84,0.34,0.34,1.76,1.77,-1.77,-1.71,-1.93,-1.43,-1.43,-1.42
290.72,0.34,0.34,1.77,1.77,-1.77,-1.70,-1.90,-1.43,-1.43,-1.43
293.63,0.34,0.34,1.78,1.77,-1.77,-1.70,-1.86,-1.43,-1.43,-1.44
296.57,0.34,0.34,1.77,1.77,-1.77,-1.70,-1.83,-1.43,-1.43,-1.43
299.53,0.34,0.34,1.77,1.77,-1.77,-1.69,-1.79,-1.43,-1.43,-1.43
302.53,0.34,0.34,1.77,1.77,-1.77,-1.69,-1.76,-1.43,-1.43,-1.43
305.55,0.33,0.33,1.76,1.77,-1.77,-1.68,-1.72,-1.44,-1.43,-1.43
308.61,0.33,0.33,1.76,1.76,-1.76,-1.68,-1.69,-1.43,-1.43,-1.44
311.69,0.33,0.33,1.76,1.76,-1.76,-1.67,-1.65,-1.43,-1.43,-1.43
314.81,0.32,0.32,1.75,1.76,-1.75,-1.66,-1.62,-1.43,-1.43,-1.43
317.96,0.32,0.32,1.75,1.75,-1.75,-1.66,-1.58,-1.43,-1.43,-1.43
321.14,0.31,0.31,1.74,1.74,-1.74,-1.65,-1.55,-1.43,-1.43,-1.43
324.35,0.30,0.30,1.73,1.73,-1.73,-1.64,-1.51,-1.43,-1.43,-1.43
327.59,0.30,0.30,1.72,1.72,-1.72,-1.63,-1.48,-1.42,-1.43,-1.42
330.87,0.29,0.29,1.72,1.71,-1.71,-1.62,-1.45,-1.42,-1.42,-1.43
334.18,0.28,0.28,1.70,1.70,-1.70,-1.62,-1.42,-1.42,-1.42,-1.42
337.52,0.27,0.27,1.69,1.69,-1.69,-1.61,-1.39,-1.42,-1.42,-1.42
340.90,0.26,0.26,1.68,1.68,-1.68,-1.60,-1.36,-1.42,-1.42,-1.42
344.30,0.26,0.26,1.67,1.67,-1.67,-1.59,-1.33,-1.41,-1.41,-1.41
347.75,0.25,0.25,1.65,1.65,-1.65,-1.57,-1.30,-1.40,-1.40,-1.40
351.23,0.24,0.24,1.65,1.64,-1.64,-1.56,-1.27,-1.40,-1.40,-1.41
354.74,0.23,0.23,1.62,1.63,-1.63,-1.55,-1.25,-1.40,-1.40,-1.39
358.28,0.22,0.22,1.61,1.61,-1.61,-1.54,-1.22,-1.39,-1.39,-1.39
361.87,0.21,0.21,1.60,1.60,-1.60,-1.53,-1.20,-1.39,-1.39,-1.39
365.49,0.20,0.20,1.58,1.58,-1.58,-1.52,-1.18,-1.38,-1.38,-1.38
369.14,0.19,0.19,1.57,1.57,-1.57,-1.50,-1.16,-1.38,-1.38,-1.38
372.83,0.18,0.18,1.54,1.55,-1.55,-1.49,-1.14,-1.37,-1.37,-1.36
376.56,0.18,0.17,1.55,1.54,-1.54,-1.48,-1.12,-1.36,-1.36,-1.37
380.33,0.16,0.16,1.52,1.52,-1.52,-1.46,-1.10,-1.36,-1.36,-1.36
384.13,0.15,0.15,1.51,1.51,-1.50,-1.45,-1.08,-1.35,-1.35,-1.36
387.97,0.14,0.14,1.49,1.49,-1.49,-1.43,-1.06,-1.35,-1.35,-1.35
391.85,0.13,0.13,1.46,1.47,-1.47,-1.42,-1.05,-1.34,-1.34,-1.34
395.77,0.11,0.11,1.45,1.45,-1.45,-1.40,-1.03,-1.34,-1.34,-1.34
399.73,0.10,0.10,1.43,1.43,-1.43,-1.39,-1.02,-1.33,-1.33,-1.33
403.72,0.09,0.09,1.41,1.41,-1.42,-1.37,-1.00,-1.33,-1.33,-1.32
407.76,0.08,0.08,1.40,1.40,-1.40,-1.36,-0.99,-1.32,-1.32,-1.32
411.84,0.07,0.07,1.38,1.38,-1.38,-1.34,-0.98,-1.31,-1.31,-1.31
415.96,0.05,0.05,1.36,1.36,-1.36,-1.32,-0.96,-1.31,-1.31,-1.31
420.12,0.04,0.04,1.35,1.34,-1.34,-1.31,-0.95,-1.30,-1.30,-1.31
424.32,0.02,0.02,1.32,1.32,-1.32,-1.29,-0.94,-1.30,-1.30,-1.30
428.56,0.01,0.01,1.30,1.30,-1.30,-1.27,-0.93,-1.29,-1.30,-1.29
432.85,-0.01,-0.01,1.27,1.28,-1.28,-1.25,-0.92,-1.29,-1.29,-1.28
437.18,-0.02,-0.02,1.26,1.26,-1.26,-1.24,-0.91,-1.28,-1.28,-1.28
441.55,-0.03,-0.04,1.24,1.24,-1.23,-1.22,-0.90,-1.26,-1.27,-1.28
445.96,-0.05,-0.05,1.22,1.21,-1.21,-1.20,-0.89,-1.26,-1.26,-1.27
450.42,-0.07,-0.07,1.18,1.18,-1.19,-1.18,-0.88,-1.26,-1.25,-1.25
454.93,-0.08,-0.08,1.16,1.16,-1.16,-1.16,-0.87,-1.24,-1.25,-1.24
459.48,-0.10,-0.10,1.13,1.13,-1.14,-1.14,-0.86,-1.24,-1.24,-1.23
464.07,-0.12,-0.12,1.11,1.11,-1.11,-1.12,-0.86,-1.23,-1.23,-1.23
468.71,-0.14,-0.14,1.08,1.08,-1.08,-1.10,-0.85,-1.22,-1.22,-1.22
473.40,-0.15,-0.15,1.06,1.06,-1.06,-1.08,-0.84,-1.21,-1.21,-1.21
478.13,-0.17,-0.17,1.03,1.03,-1.03,-1.06,-0.83,-1.20,-1.20,-1.20
482.91,-0.19,-0.19,1.01,1.01,-1.00,-1.04,-0.82,-1.20,-1.19,-1.20
487.74,-0.21,-0.21,0.98,0.98,-0.98,-1.02,-0.81,-1.19,-1.19,-1.19
492.62,-0.23,-0.23,0.95,0.95,-0.95,-1.00,-0.79,-1.18,-1.18,-1.18
497.55,-0.25,-0.25,0.92,0.92,-0.92,-0.98,-0.78,-1.17,-1.17,-1.17
502.52,-0.27,-0.27,0.89,0.89,-0.88,-0.96,-0.77,-1.15,-1.15,-1.16
507.55,-0.29,-0.29,0.85,0.85,-0.85,-0.94,-0.76,-1.14,-1.14,-1.14
512.62,-0.31,-0.31,0.82,0.82,-0.82,-0.91,-0.75,-1.13,-1.14,-1.13
517.75,-0.33,-0.33,0.79,0.79,-0.79,-0.89,-0.74,-1.12,-1.12,-1.12
522.93,-0.35,-0.35,0.76,0.76,-0.77,-0.87,-0.72,-1.12,-1.11,-1.11
