frequency,raw,smoothed,error,error_smoothed,equalization,parametric_eq,fixed_band_eq,equalized_raw,equalized_smoothed,target
20.00,-7.21,-7.20,-11.11,-11.11,6.00,6.23,2.65,-1.21,-1.20,3.90
20.20,-7.15,-7.15,-11.05,-11.05,6.00,6.23,2.73,-1.15,-1.15,3.90
20.40,-7.10,-7.10,-11.00,-11.00,6.00,6.23,2.81,-1.10,-1.10,3.90
20.61,-7.04,-7.04,-10.94,-10.94,6.00,6.23,2.89,-1.04,-1.04,3.90
20.81,-6.98,-6.97,-10.88,-10.88,6.00,6.22,2.97,-0.98,-0.97,3.90
21.02,-6.91,-6.91,-10.82,-10.82,6.00,6.22,3.05,-0.91,-0.91,3.91
21.23,-6.84,-6.84,-10.75,-10.75,6.00,6.22,3.14,-0.84,-0.84,3.91
21.44,-6.76,-6.75,-10.67,-10.66,6.00,6.22,3.23,-0.76,-0.75,3.91
21.66,-6.67,-6.67,-10.58,-10.58,6.00,6.22,3.32,-0.67,-0.67,3.91
21.87,-6.58,-6.59,-10.48,-10.50,6.00,6.22,3.42,-0.58,-0.59,3.91
22.09,-6.53,-6.51,-10.43,-10.42,6.00,6.22,3.52,-0.53,-0.51,3.91
22.31,-6.45,-6.45,-10.35,-10.35,6.00,6.21,3.62,-0.45,-0.45,3.91
22.54,-6.39,-6.40,-10.29,-10.30,6.00,6.21,3.72,-0.39,-0.40,3.91
22.76,-6.34,-6.34,-10.25,-10.25,6.00,6.21,3.82,-0.34,-0.34,3.91
22.99,-6.30,-6.28,-10.22,-10.20,6.00,6.21,3.93,-0.30,-0.28,3.92
23.22,-6.20,-6.20,-10.13,-10.13,6.00,6.21,4.04,-0.20,-0.20,3.93
23.45,-6.10,-6.11,-10.04,-10.05,6.00,6.20,4.16,-0.10,-0.11,3.94
23.69,-6.02,-6.01,-9.97,-9.96,6.00,6.20,4.27,-0.02,-0.01,3.95
23.92,-5.92,-5.91,-9.87,-9.86,6.00,6.20,4.39,0.08,0.09,3.95
24.16,-5.83,-5.83,-9.78,-9.78,6.00,6.20,4.51,0.17,0.17,3.95
24.40,-5.76,-5.76,-9.71,-9.71,6.00,6.20,4.63,0.24,0.24,3.95
24.65,-5.72,-5.71,-9.67,-9.67,6.00,6.19,4.76,0.28,0.29,3.96
24.89,-5.67,-5.67,-9.63,-9.64,6.00,6.19,4.88,0.33,0.33,3.97
25.14,-5.63,-5.63,-9.60,-9.61,6.00,6.19,5.01,0.37,0.37,3.98
25.39,-5.59,-5.58,-9.58,-9.56,6.00,6.19,5.14,0.41,0.42,3.99
25.65,-5.53,-5.54,-9.51,-9.52,6.00,6.19,5.26,0.47,0.46,3.98
25.91,-5.48,-5.48,-9.47,-9.48,6.00,6.18,5.39,0.52,0.52,3.99
26.16,-5.43,-5.42,-9.43,-9.42,6.00,6.18,5.52,0.57,0.58,3.99
26.43,-5.36,-5.36,-9.36,-9.36,6.00,6.18,5.65,0.64,0.64,4.00
26.69,-5.29,-5.29,-9.28,-9.29,6.00,6.18,5.78,0.71,0.71,3.99
26.96,-5.23,-5.22,-9.23,-9.22,6.00,6.17,5.91,0.77,0.78,4.00
27.23,-5.16,-5.16,-9.15,-9.15,6.00,6.17,6.03,0.84,0.84,4.00
27.50,-5.09,-5.09,-9.08,-9.09,6.00,6.17,6.15,0.91,0.91,4.00
27.77,-5.04,-5.03,-9.03,-9.02,6.00,6.16,6.27,0.96,0.97,3.99
28.05,-4.98,-4.98,-8.96,-8.96,6.00,6.16,6.38,1.02,1.02,3.98
28.33,-4.93,-4.92,-8.90,-8.90,6.00,6.16,6.49,1.07,1.08,3.97
28.62,-4.86,-4.85,-8.83,-8.82,6.00,6.15,6.60,1.14,1.15,3.97
28.90,-4.79,-4.78,-8.75,-8.74,6.00,6.15,6.69,1.21,1.22,3.97
29.19,-4.71,-4.71,-8.65,-8.66,6.00,6.15,6.78,1.29,1.29,3.95
29.48,-4.65,-4.65,-8.58,-8.58,6.00,6.14,6.86,1.35,1.35,3.94
29.78,-4.60,-4.59,-8.52,-8.51,6.00,6.14,6.94,1.40,1.41,3.92
30.08,-4.55,-4.56,-8.45,-8.46,6.00,6.14,7.00,1.45,1.44,3.90
30.38,-4.53,-4.53,-8.43,-8.43,6.00,6.13,7.06,1.47,1.47,3.90
30.68,-4.51,-4.50,-8.39,-8.39,6.00,6.13,7.10,1.49,1.50,3.89
30.99,-4.48,-4.47,-8.35,-8.35,6.00,6.13,7.14,1.52,1.53,3.88
31.30,-4.43,-4.43,-8.28,-8.28,6.00,6.12,7.16,1.57,1.57,3.85
31.61,-4.38,-4.37,-8.21,-8.21,6.00,6.12,7.18,1.62,1.63,3.83
31.93,-4.31,-4.31,-8.13,-8.12,6.00,6.11,7.18,1.69,1.69,3.82
32.24,-4.24,-4.24,-8.03,-8.03,6.00,6.11,7.17,1.76,1.76,3.80
32.57,-4.19,-4.19,-7.95,-7.95,6.00,6.10,7.16,1.81,1.81,3.76
32.89,-4.14,-4.14,-7.88,-7.88,6.00,6.10,7.13,1.86,1.86,3.74
33.22,-4.10,-4.09,-7.82,-7.82,6.00,6.10,7.10,1.90,1.91,3.73
33.55,-4.05,-4.05,-7.75,-7.75,6.00,6.09,7.06,1.95,1.95,3.71
33.89,-4.01,-4.00,-7.68,-7.68,6.00,6.09,7.01,1.99,2.00,3.67
34.23,-3.96,-3.95,-7.61,-7.60,6.00,6.08,6.95,2.04,2.05,3.65
34.57,-3.90,-3.90,-7.52,-7.52,6.00,6.08,6.89,2.10,2.10,3.63
34.92,-3.84,-3.84,-7.44,-7.44,6.00,6.07,6.82,2.16,2.16,3.60
35.27,-3.78,-3.78,-7.35,-7.36,6.00,6.07,6.75,2.22,2.22,3.57
35.62,-3.73,-3.73,-7.28,-7.29,6.00,6.06,6.68,2.27,2.27,3.56
35.97,-3.69,-3.68,-7.23,-7.22,6.00,6.05,6.60,2.31,2.32,3.54
36.33,-3.64,-3.64,-7.17,-7.17,6.00,6.05,6.52,2.36,2.36,3.53
36.70,-3.60,-3.60,-7.11,-7.11,6.00,6.04,6.44,2.40,2.40,3.52
37.06,-3.56,-3.56,-7.06,-7.06,6.00,6.04,6.36,2.44,2.44,3.50
37.43,-3.52,-3.52,-7.01,-7.01,6.00,6.03,6.28,2.48,2.48,3.50
37.81,-3.49,-3.48,-6.97,-6.97,6.00,6.02,6.20,2.51,2.52,3.48
38.19,-3.45,-3.45,-6.92,-6.93,6.00,6.02,6.12,2.55,2.55,3.48
38.57,-3.41,-3.40,-6.88,-6.88,6.00,6.01,6.05,2.59,2.60,3.47
38.95,-3.36,-3.36,-6.83,-6.83,6.00,6.01,5.97,2.64,2.64,3.48
39.34,-3.31,-3.31,-6.78,-6.79,6.00,6.00,5.90,2.69,2.69,3.47
39.74,-3.27,-3.26,-6.74,-6.74,6.00,5.99,5.83,2.73,2.74,3.48
40.14,-3.23,-3.22,-6.70,-6.70,6.00,5.99,5.76,2.77,2.78,3.47
40.54,-3.19,-3.19,-6.66,-6.66,6.00,5.98,5.69,2.81,2.81,3.48
40.94,-3.16,-3.16,-6.63,-6.64,6.00,5.98,5.63,2.84,2.84,3.47
41.35,-3.14,-3.14,-6.61,-6.61,6.00,5.97,5.58,2.86,2.86,3.48
41.76,-3.12,-3.11,-6.60,-6.59,6.00,5.96,5.52,2.88,2.89,3.48
42.18,-3.09,-3.09,-6.55,-6.56,6.00,5.96,5.47,2.91,2.91,3.46
42.60,-3.06,-3.05,-6.52,-6.52,6.00,5.95,5.42,2.94,2.95,3.47
43.03,-3.02,-3.02,-6.48,-6.48,6.00,5.95,5.38,2.98,2.98,3.46
43.46,-2.99,-2.99,-6.44,-6.44,6.00,5.94,5.34,3.01,3.01,3.45
43.90,-2.96,-2.95,-6.40,-6.40,6.00,5.94,5.31,3.04,3.05,3.44
44.33,-2.93,-2.92,-6.36,-6.36,6.00,5.93,5.28,3.07,3.08,3.44
44.78,-2.89,-2.89,-6.32,-6.32,6.00,5.93,5.25,3.11,3.11,3.43
45.23,-2.87,-2.86,-6.29,-6.28,6.00,5.93,5.23,3.13,3.14,3.42
45.68,-2.84,-2.83,-6.24,-6.24,6.00,5.93,5.21,3.16,3.17,3.40
46.13,-2.81,-2.81,-6.20,-6.20,6.00,5.92,5.19,3.19,3.19,3.39
46.60,-2.79,-2.79,-6.17,-6.17,6.00,5.93,5.18,3.21,3.21,3.38
47.06,-2.78,-2.77,-6.14,-6.14,6.00,5.93,5.18,3.22,3.23,3.36
47.53,-2.77,-2.76,-6.11,-6.11,6.00,5.93,5.17,3.23,3.24,3.34
48.01,-2.75,-2.75,-6.07,-6.08,6.00,5.93,5.17,3.25,3.25,3.32
48.49,-2.74,-2.74,-6.05,-6.05,6.00,5.94,5.18,3.26,3.26,3.31
48.97,-2.74,-2.73,-6.03,-6.03,6.00,5.95,5.18,3.26,3.26,3.29
49.46,-2.74,-2.73,-6.01,-6.01,6.00,5.96,5.19,3.26,3.26,3.27
49.96,-2.74,-2.74,-6.00,-6.00,5.99,5.97,5.21,3.26,3.26,3.27
50.46,-2.75,-2.75,-5.99,-5.99,5.99,5.98,5.22,3.25,3.25,3.25
50.96,-2.77,-2.76,-5.99,-5.99,5.99,5.98,5.24,3.23,3.23,3.22
51.47,-2.79,-2.79,-5.98,-5.98,5.99,5.99,5.26,3.21,3.21,3.19
51.99,-2.82,-2.82,-5.99,-5.99,5.99,5.99,5.28,3.18,3.18,3.18
52.51,-2.85,-2.85,-6.00,-6.00,5.99,5.99,5.30,3.15,3.15,3.15
53.03,-2.89,-2.88,-6.03,-6.02,6.00,5.97,5.32,3.11,3.11,3.14
53.56,-2.92,-2.92,-6.02,-6.02,6.00,5.95,5.34,3.09,3.09,3.10
54.10,-2.95,-2.94,-6.03,-6.03,6.01,5.92,5.36,3.06,3.06,3.09
54.64,-2.97,-2.97,-6.02,-6.03,6.01,5.88,5.39,3.05,3.04,3.05
55.18,-2.99,-2.99,-6.02,-6.02,6.01,5.84,5.41,3.03,3.03,3.04
55.74,-3.01,-3.01,-6.02,-6.01,6.01,5.79,5.43,3.00,3.00,3.01
56.29,-3.02,-3.02,-6.00,-6.01,6.00,5.73,5.44,2.98,2.97,2.98
56.86,-3.04,-3.03,-5.99,-5.98,5.97,5.68,5.46,2.94,2.94,2.95
57.42,-3.03,-3.02,-5.95,-5.95,5.93,5.62,5.47,2.91,2.91,2.92
58.00,-2.99,-2.99,-5.89,-5.89,5.87,5.56,5.48,2.89,2.89,2.91
58.58,-2.93,-2.93,-5.81,-5.82,5.80,5.50,5.48,2.87,2.87,2.89
59.16,-2.86,-2.85,-5.72,-5.72,5.70,5.44,5.48,2.85,2.85,2.87
59.76,-2.77,-2.76,-5.60,-5.60,5.59,5.38,5.48,2.82,2.83,2.83
60.35,-2.65,-2.65,-5.46,-5.47,5.46,5.33,5.47,2.82,2.81,2.81
60.96,-2.54,-2.54,-5.33,-5.32,5.33,5.27,5.45,2.79,2.79,2.79
61.57,-2.42,-2.42,-5.18,-5.18,5.19,5.22,5.43,2.77,2.77,2.77
62.18,-2.31,-2.30,-5.04,-5.04,5.04,5.17,5.40,2.74,2.74,2.73
62.80,-2.19,-2.19,-4.90,-4.90,4.91,5.11,5.37,2.72,2.72,2.72
63.43,-2.08,-2.08,-4.77,-4.77,4.78,5.06,5.33,2.70,2.70,2.69
64.07,-1.98,-1.98,-4.64,-4.65,4.66,5.01,5.28,2.68,2.68,2.67
64.71,-1.90,-1.90,-4.54,-4.54,4.55,4.96,5.23,2.66,2.66,2.64
65.35,-1.83,-1.83,-4.45,-4.45,4.46,4.91,5.17,2.63,2.63,2.62
66.01,-1.77,-1.77,-4.37,-4.37,4.37,4.85,5.11,2.60,2.60,2.61
66.67,-1.72,-1.72,-4.30,-4.30,4.30,4.80,5.04,2.58,2.58,2.59
67.33,-1.68,-1.68,-4.24,-4.24,4.24,4.75,4.97,2.56,2.56,2.57
68.01,-1.65,-1.64,-4.18,-4.18,4.18,4.70,4.89,2.54,2.54,2.54
68.69,-1.62,-1.62,-4.13,-4.13,4.14,4.64,4.81,2.52,2.52,2.51
69.37,-1.60,-1.60,-4.09,-4.09,4.10,4.59,4.72,2.50,2.50,2.49
70.07,-1.59,-1.59,-4.07,-4.06,4.06,4.53,4.63,2.48,2.48,2.48
70.77,-1.59,-1.58,-4.04,-4.04,4.04,4.48,4.54,2.45,2.45,2.46
71.48,-1.59,-1.59,-4.01,-4.01,4.01,4.42,4.45,2.43,2.43,2.42
72.19,-1.59,-1.59,-3.99,-3.99,3.99,4.37,4.35,2.40,2.41,2.41
72.91,-1.59,-1.59,-3.97,-3.97,3.97,4.31,4.25,2.38,2.38,2.38
73.64,-1.59,-1.59,-3.95,-3.95,3.95,4.25,4.15,2.36,2.36,2.36
74.38,-1.60,-1.59,-3.94,-3.94,3.93,4.19,4.05,2.33,2.34,2.35
75.12,-1.60,-1.59,-3.91,-3.91,3.91,4.13,3.95,2.31,2.31,2.32
75.87,-1.60,-1.60,-3.88,-3.89,3.89,4.07,3.85,2.29,2.29,2.29
76.63,-1.60,-1.60,-3.85,-3.86,3.87,4.00,3.75,2.27,2.27,2.26
77.40,-1.61,-1.60,-3.83,-3.83,3.84,3.94,3.65,2.23,2.24,2.23
78.17,-1.61,-1.61,-3.80,-3.80,3.81,3.87,3.55,2.20,2.20,2.20
78.95,-1.61,-1.61,-3.77,-3.77,3.77,3.81,3.45,2.16,2.16,2.16
79.74,-1.61,-1.60,-3.74,-3.73,3.72,3.74,3.35,2.12,2.12,2.13
80.54,-1.60,-1.59,-3.69,-3.68,3.66,3.67,3.26,2.07,2.07,2.10
81.35,-1.57,-1.57,-3.61,-3.61,3.60,3.60,3.16,2.03,2.03,2.04
82.16,-1.54,-1.54,-3.53,-3.53,3.52,3.53,3.07,1.99,1.99,1.99
82.98,-1.50,-1.50,-3.43,-3.43,3.44,3.46,2.98,1.94,1.94,1.94
83.81,-1.46,-1.45,-3.34,-3.34,3.35,3.39,2.89,1.89,1.89,1.88
84.65,-1.41,-1.41,-3.24,-3.24,3.25,3.32,2.80,1.84,1.84,1.83
85.50,-1.37,-1.36,-3.14,-3.14,3.14,3.24,2.71,1.77,1.78,1.77
86.35,-1.32,-1.31,-3.04,-3.04,3.03,3.17,2.63,1.72,1.72,1.73
87.22,-1.26,-1.26,-2.92,-2.93,2.92,3.10,2.54,1.66,1.66,1.67
88.09,-1.22,-1.21,-2.82,-2.82,2.81,3.02,2.46,1.59,1.60,1.61
88.97,-1.17,-1.17,-2.70,-2.70,2.70,2.94,2.38,1.54,1.53,1.53
89.86,-1.13,-1.13,-2.59,-2.59,2.60,2.87,2.30,1.47,1.47,1.46
90.76,-1.10,-1.09,-2.48,-2.48,2.49,2.79,2.23,1.40,1.40,1.38
91.66,-1.07,-1.07,-2.38,-2.39,2.40,2.71,2.15,1.33,1.33,1.32
92.58,-1.04,-1.04,-2.30,-2.30,2.31,2.63,2.08,1.27,1.27,1.27
93.51,-1.03,-1.02,-2.23,-2.23,2.22,2.55,2.01,1.20,1.20,1.20
94.44,-1.01,-1.01,-2.15,-2.15,2.15,2.47,1.94,1.14,1.14,1.15
95.39,-1.00,-1.00,-2.08,-2.08,2.08,2.39,1.87,1.08,1.08,1.08
96.34,-1.00,-0.99,-2.01,-2.01,2.01,2.31,1.81,1.02,1.02,1.02
97.30,-1.00,-1.00,-1.95,-1.95,1.95,2.23,1.74,0.95,0.96,0.95
98.28,-1.00,-1.00,-1.89,-1.89,1.89,2.15,1.68,0.89,0.89,0.90
99.26,-1.00,-1.00,-1.83,-1.83,1.83,2.07,1.62,0.84,0.84,0.83
100.25,-1.00,-1.00,-1.78,-1.78,1.78,1.99,1.56,0.78,0.78,0.79
101.25,-1.00,-1.00,-1.72,-1.73,1.73,1.91,1.50,0.73,0.73,0.72
102.27,-1.01,-1.00,-1.68,-1.68,1.67,1.84,1.44,0.67,0.67,0.67
103.29,-1.01,-1.01,-1.63,-1.63,1.63,1.76,1.39,0.62,0.62,0.63
104.32,-1.01,-1.01,-1.57,-1.58,1.58,1.68,1.33,0.57,0.57,0.56
105.37,-1.02,-1.01,-1.53,-1.53,1.53,1.60,1.28,0.52,0.52,0.52
106.42,-1.02,-1.02,-1.49,-1.48,1.49,1.53,1.23,0.47,0.47,0.47
107.48,-1.03,-1.02,-1.44,-1.44,1.44,1.45,1.18,0.41,0.41,0.41
108.56,-1.03,-1.03,-1.39,-1.39,1.39,1.38,1.13,0.37,0.36,0.37
109.64,-1.04,-1.03,-1.35,-1.35,1.34,1.30,1.08,0.31,0.31,0.31
110.74,-1.04,-1.04,-1.30,-1.30,1.29,1.23,1.04,0.26,0.26,0.26
111.85,-1.04,-1.04,-1.24,-1.25,1.24,1.16,0.99,0.21,0.21,0.21
112.97,-1.04,-1.04,-1.19,-1.19,1.19,1.09,0.95,0.16,0.15,0.15
114.10,-1.04,-1.04,-1.14,-1.14,1.14,1.02,0.91,0.10,0.10,0.11
115.24,-1.04,-1.03,-1.08,-1.08,1.09,0.95,0.87,0.05,0.06,0.04
116.39,-1.03,-1.03,-1.03,-1.03,1.04,0.89,0.83,0.01,0.01,0.01
117.55,-1.03,-1.03,-0.98,-0.98,0.98,0.82,0.79,-0.04,-0.04,-0.05
118.73,-1.04,-1.03,-0.94,-0.94,0.94,0.76,0.75,-0.10,-0.10,-0.10
119.92,-1.04,-1.04,-0.89,-0.89,0.89,0.70,0.72,-0.15,-0.15,-0.14
121.12,-1.05,-1.05,-0.84,-0.84,0.85,0.64,0.68,-0.20,-0.20,-0.21
122.33,-1.06,-1.06,-0.80,-0.80,0.80,0.59,0.65,-0.25,-0.25,-0.26
123.55,-1.07,-1.07,-0.76,-0.76,0.76,0.53,0.61,-0.30,-0.30,-0.31
124.79,-1.08,-1.08,-0.73,-0.72,0.72,0.48,0.58,-0.35,-0.35,-0.35
126.03,-1.09,-1.09,-0.69,-0.69,0.68,0.43,0.55,-0.41,-0.41,-0.40
127.29,-1.10,-1.10,-0.65,-0.65,0.64,0.38,0.53,-0.46,-0.46,-0.45
128.57,-1.11,-1.11,-0.61,-0.60,0.59,0.33,0.50,-0.51,-0.51,-0.50
129.85,-1.12,-1.12,-0.55,-0.55,0.55,0.29,0.47,-0.57,-0.57,-0.57
131.15,-1.13,-1.13,-0.50,-0.50,0.50,0.25,0.44,-0.62,-0.62,-0.63
132.46,-1.14,-1.14,-0.45,-0.45,0.46,0.21,0.42,-0.68,-0.68,-0.68
133.79,-1.15,-1.15,-0.41,-0.41,0.41,0.17,0.40,-0.74,-0.74,-0.74
135.12,-1.16,-1.16,-0.36,-0.36,0.36,0.13,0.37,-0.79,-0.79,-0.80
136.48,-1.17,-1.17,-0.32,-0.32,0.32,0.10,0.35,-0.85,-0.85,-0.84
137.84,-1.18,-1.17,-0.28,-0.27,0.27,0.06,0.33,-0.91,-0.90,-0.90
139.22,-1.18,-1.18,-0.22,-0.22,0.22,0.03,0.31,-0.96,-0.96,-0.96
140.61,-1.19,-1.19,-0.17,-0.18,0.17,0.00,0.29,-1.01,-1.01,-1.01
142.02,-1.20,-1.19,-0.13,-0.12,0.13,-0.03,0.27,-1.07,-1.07,-1.06
143.44,-1.21,-1.20,-0.08,-0.08,0.08,-0.05,0.25,-1.13,-1.12,-1.13
144.87,-1.21,-1.21,-0.02,-0.03,0.03,-0.08,0.23,-1.17,-1.18,-1.19
146.32,-1.22,-1.22,0.01,0.01,-0.01,-0.10,0.21,-1.23,-1.23,-1.23
147.78,-1.23,-1.22,0.05,0.05,-0.05,-0.12,0.19,-1.28,-1.27,-1.27
149.26,-1.23,-1.23,0.09,0.09,-0.09,-0.14,0.17,-1.32,-1.32,-1.31
150.75,-1.24,-1.24,0.13,0.13,-0.13,-0.16,0.15,-1.36,-1.36,-1.37
152.26,-1.25,-1.24,0.16,0.16,-0.16,-0.17,0.14,-1.41,-1.41,-1.41
153.78,-1.25,-1.25,0.20,0.20,-0.20,-0.19,0.12,-1.44,-1.45,-1.44
155.32,-1.26,-1.26,0.23,0.23,-0.23,-0.20,0.10,-1.48,-1.48,-1.49
156.88,-1.27,-1.26,0.25,0.26,-0.25,-0.22,0.08,-1.52,-1.52,-1.52
158.44,-1.27,-1.27,0.29,0.28,-0.28,-0.23,0.07,-1.55,-1.55,-1.55
160.03,-1.28,-1.28,0.31,0.30,-0.31,-0.24,0.05,-1.58,-1.58,-1.59
161.63,-1.29,-1.28,0.32,0.33,-0.33,-0.25,0.03,-1.61,-1.61,-1.61
163.24,-1.30,-1.29,0.34,0.34,-0.35,-0.26,0.02,-1.64,-1.64,-1.64
164.88,-1.30,-1.30,0.37,0.36,-0.37,-0.27,-0.00,-1.66,-1.67,-1.67
166.53,-1.31,-1.31,0.38,0.38,-0.38,-0.27,-0.02,-1.69,-1.69,-1.69
168.19,-1.32,-1.31,0.40,0.40,-0.40,-0.28,-0.04,-1.72,-1.71,-1.72
169.87,-1.32,-1.32,0.42,0.42,-0.41,-0.28,-0.06,-1.73,-1.73,-1.73
171.57,-1.33,-1.33,0.43,0.43,-0.43,-0.29,-0.07,-1.75,-1.75,-1.76
173.29,-1.34,-1.34,0.44,0.44,-0.44,-0.29,-0.09,-1.77,-1.77,-1.78
175.02,-1.35,-1.35,0.44,0.45,-0.45,-0.30,-0.11,-1.80,-1.80,-1.79
176.77,-1.36,-1.36,0.46,0.46,-0.46,-0.30,-0.13,-1.82,-1.82,-1.82
178.54,-1.37,-1.36,0.46,0.47,-0.47,-0.30,-0.15,-1.84,-1.83,-1.83
180.32,-1.37,-1.37,0.48,0.48,-0.48,-0.30,-0.17,-1.85,-1.85,-1.84
182.13,-1.38,-1.38,0.49,0.49,-0.49,-0.30,-0.19,-1.86,-1.86,-1.87
183.95,-1.39,-1.39,0.50,0.50,-0.49,-0.30,-0.21,-1.88,-1.88,-1.89
185.79,-1.40,-1.40,0.50,0.50,-0.50,-0.30,-0.23,-1.90,-1.90,-1.90
187.65,-1.41,-1.41,0.50,0.50,-0.51,-0.30,-0.25,-1.91,-1.91,-1.91
189.52,-1.42,-1.42,0.50,0.51,-0.51,-0.30,-0.27,-1.92,-1.92,-1.92
191.42,-1.43,-1.43,0.51,0.51,-0.51,-0.30,-0.29,-1.93,-1.93,-1.94
193.33,-1.44,-1.44,0.51,0.51,-0.51,-0.30,-0.31,-1.94,-1.94,-1.95
195.27,-1.45,-1.45,0.51,0.51,-0.51,-0.30,-0.33,-1.95,-1.96,-1.96
197.22,-1.47,-1.46,0.50,0.50,-0.51,-0.30,-0.35,-1.97,-1.97,-1.96
199.19,-1.48,-1.48,0.50,0.50,-0.50,-0.30,-0.37,-1.98,-1.98,-1.97
201.18,-1.49,-1.49,0.50,0.50,-0.50,-0.29,-0.39,-1.99,-1.99,-1.99
203.19,-1.50,-1.50,0.50,0.50,-0.50,-0.29,-0.41,-1.99,-1.99,-1.99
205.23,-1.51,-1.51,0.50,0.50,-0.49,-0.29,-0.43,-2.00,-2.00,-2.01
207.28,-1.52,-1.52,0.50,0.49,-0.49,-0.28,-0.45,-2.01,-2.01,-2.01
209.35,-1.54,-1.53,0.48,0.49,-0.49,-0.28,-0.47,-2.02,-2.02,-2.02
211.44,-1.55,-1.55,0.48,0.48,-0.48,-0.28,-0.49,-2.03,-2.03,-2.02
213.56,-1.56,-1.56,0.47,0.47,-0.48,-0.27,-0.51,-2.03,-2.03,-2.03
215.69,-1.57,-1.56,0.46,0.47,-0.47,-0.27,-0.52,-2.04,-2.03,-2.03
217.85,-1.57,-1.57,0.47,0.46,-0.46,-0.26,-0.54,-2.03,-2.03,-2.03
220.03,-1.58,-1.58,0.46,0.46,-0.45,-0.26,-0.56,-2.03,-2.03,-2.04
222.23,-1.59,-1.59,0.44,0.45,-0.44,-0.25,-0.57,-2.03,-2.03,-2.03
224.45,-1.60,-1.60,0.43,0.43,-0.43,-0.25,-0.59,-2.02,-2.02,-2.03
226.70,-1.61,-1.61,0.42,0.42,-0.42,-0.24,-0.60,-2.02,-2.02,-2.03
228.96,-1.62,-1.62,0.39,0.40,-0.40,-0.24,-0.61,-2.02,-2.02,-2.01
231.25,-1.63,-1.63,0.38,0.38,-0.39,-0.23,-0.62,-2.02,-2.02,-2.01
233.57,-1.64,-1.64,0.37,0.37,-0.38,-0.23,-0.63,-2.02,-2.02,-2.01
235.90,-1.65,-1.64,0.36,0.37,-0.37,-0.22,-0.64,-2.01,-2.01,-2.01
238.26,-1.65,-1.65,0.36,0.36,-0.36,-0.22,-0.64,-2.00,-2.01,-2.01
240.64,-1.66,-1.65,0.35,0.35,-0.35,-0.21,-0.65,-2.00,-2.00,-2.01
243.05,-1.66,-1.66,0.34,0.34,-0.33,-0.21,-0.65,-1.99,-1.99,-2.00
245.48,-1.67,-1.66,0.32,0.32,-0.32,-0.20,-0.65,-1.99,-1.99,-1.99
247.93,-1.67,-1.67,0.31,0.31,-0.31,-0.19,-0.64,-1.98,-1.98,-1.97
250.41,-1.67,-1.67,0.30,0.30,-0.30,-0.19,-0.64,-1.96,-1.97,-1.96
252.92,-1.68,-1.67,0.28,0.28,-0.29,-0.18,-0.63,-1.96,-1.96,-1.96
255.45,-1.68,-1.68,0.27,0.27,-0.27,-0.18,-0.62,-1.95,-1.95,-1.95
258.00,-1.68,-1.68,0.26,0.26,-0.26,-0.17,-0.61,-1.93,-1.94,-1.93
260.58,-1.69,-1.69,0.24,0.24,-0.24,-0.16,-0.60,-1.93,-1.93,-1.93
263.19,-1.70,-1.69,0.23,0.23,-0.23,-0.16,-0.59,-1.92,-1.92,-1.93
265.82,-1.70,-1.70,0.22,0.22,-0.21,-0.15,-0.57,-1.91,-1.91,-1.91
268.48,-1.71,-1.71,0.20,0.20,-0.20,-0.14,-0.55,-1.90,-1.90,-1.91
271.16,-1.72,-1.72,0.18,0.18,-0.18,-0.14,-0.53,-1.90,-1.90,-1.90
273.87,-1.73,-1.73,0.16,0.16,-0.16,-0.13,-0.51,-1.89,-1.89,-1.88
276.61,-1.74,-1.74,0.14,0.14,-0.15,-0.12,-0.49,-1.88,-1.88,-1.88
279.38,-1.75,-1.75,0.13,0.13,-0.13,-0.11,-0.46,-1.88,-1.88,-1.87
282.17,-1.76,-1.76,0.12,0.12,-0.12,-0.11,-0.44,-1.87,-1.87,-1.88
284.99,-1.77,-1.77,0.11,0.11,-0.10,-0.10,-0.41,-1.87,-1.87,-1.87
287.84,-1.78,-1.78,0.10,0.10,-0.09,-0.09,-0.38,-1.87,-1.87,-1.88
290.72,-1.80,-1.79,0.08,0.08,-0.08,-0.08,-0.35,-1.88,-1.87,-1.87
293.63,-1.81,-1.80,0.07,0.07,-0.07,-0.08,-0.32,-1.88,-1.87,-1.88
296.57,-1.82,-1.82,0.05,0.06,-0.06,-0.07,-0.29,-1.87,-1.87,-1.87
299.53,-1.83,-1.83,0.05,0.04,-0.04,-0.06,-0.26,-1.87,-1.87,-1.87
302.53,-1.85,-1.84,0.03,0.03,-0.03,-0.05,-0.23,-1.88,-1.87,-1.88
305.55,-1.86,-1.86,0.02,0.02,-0.02,-0.04,-0.19,-1.87,-1.87,-1.87
308.61,-1.87,-1.87,0.01,0.01,-0.01,-0.04,-0.16,-1.87,-1.88,-1.88
311.69,-1.89,-1.88,-0.01,-0.01,0.01,-0.03,-0.12,-1.88,-1.88,-1.88
314.81,-1.90,-1.90,-0.02,-0.02,0.02,-0.02,-0.09,-1.88,-1.88,-1.87
317.96,-1.91,-1.91,-0.03,-0.03,0.03,-0.01,-0.05,-1.87,-1.88,-1.88
321.14,-1.93,-1.92,-0.05,-0.05,0.04,0.00,-0.02,-1.88,-1.88,-1.88
324.35,-1.94,-1.94,-0.06,-0.06,0.06,0.01,0.02,-1.88,-1.88,-1.87
327.59,-1.95,-1.95,-0.07,-0.07,0.07,0.02,0.06,-1.87,-1.87,-1.88
330.87,-1.96,-1.96,-0.08,-0.08,0.09,0.03,0.09,-1.87,-1.87,-1.88
334.18,-1.97,-1.97,-0.11,-0.10,0.11,0.04,0.13,-1.86,-1.86,-1.86
337.52,-1.98,-1.98,-0.12,-0.12,0.13,0.05,0.17,-1.85,-1.85,-1.85
340.90,-2.00,-1.99,-0.15,-0.15,0.15,0.06,0.21,-1.85,-1.84,-1.85
344.30,-2.01,-2.01,-0.17,-0.17,0.17,0.07,0.24,-1.84,-1.84,-1.84
347.75,-2.02,-2.02,-0.21,-0.20,0.19,0.08,0.28,-1.82,-1.82,-1.81
351.23,-2.03,-2.02,-0.22,-0.22,0.22,0.09,0.32,-1.81,-1.81,-1.80
354.74,-2.03,-2.03,-0.24,-0.24,0.24,0.11,0.36,-1.79,-1.79,-1.79
358.28,-2.04,-2.03,-0.26,-0.26,0.26,0.12,0.40,-1.77,-1.77,-1.78
361.87,-2.04,-2.04,-0.28,-0.28,0.29,0.13,0.44,-1.75,-1.75,-1.76
365.49,-2.04,-2.04,-0.31,-0.31,0.31,0.14,0.48,-1.73,-1.73,-1.72
369.14,-2.05,-2.04,-0.34,-0.34,0.34,0.16,0.52,-1.71,-1.71,-1.70
372.83,-2.05,-2.05,-0.36,-0.37,0.37,0.17,0.56,-1.68,-1.68,-1.68
376.56,-2.06,-2.06,-0.39,-0.39,0.40,0.19,0.60,-1.66,-1.66,-1.67
380.33,-2.08,-2.07,-0.43,-0.43,0.44,0.20,0.64,-1.64,-1.64,-1.65
384.13,-2.10,-2.09,-0.47,-0.47,0.47,0.22,0.68,-1.62,-1.62,-1.63
387.97,-2.12,-2.12,-0.51,-0.51,0.51,0.23,0.72,-1.60,-1.60,-1.60
391.85,-2.14,-2.14,-0.55,-0.56,0.55,0.25,0.76,-1.58,-1.59,-1.58
395.77,-2.17,-2.16,-0.60,-0.60,0.59,0.27,0.80,-1.58,-1.57,-1.56
399.73,-2.18,-2.18,-0.63,-0.63,0.62,0.28,0.84,-1.55,-1.56,-1.55
403.72,-2.19,-2.19,-0.65,-0.65,0.65,0.30,0.88,-1.54,-1.54,-1.54
407.76,-2.20,-2.19,-0.68,-0.68,0.67,0.32,0.92,-1.52,-1.52,-1.52
411.84,-2.20,-2.19,-0.70,-0.70,0.69,0.34,0.96,-1.50,-1.50,-1.50
415.96,-2.19,-2.19,-0.72,-0.71,0.71,0.36,1.00,-1.48,-1.48,-1.47
420.12,-2.18,-2.18,-0.71,-0.72,0.72,0.38,1.04,-1.46,-1.46,-1.46
424.32,-2.17,-2.17,-0.72,-0.72,0.73,0.41,1.07,-1.44,-1.44,-1.44
428.56,-2.16,-2.16,-0.73,-0.73,0.74,0.43,1.11,-1.42,-1.42,-1.42
432.85,-2.16,-2.15,-0.75,-0.75,0.75,0.45,1.15,-1.41,-1.41,-1.41
437.18,-2.15,-2.15,-0.76,-0.76,0.76,0.48,1.18,-1.39,-1.39,-1.39
441.55,-2.15,-2.14,-0.77,-0.77,0.77,0.51,1.21,-1.37,-1.37,-1.38
445.96,-2.14,-2.14,-0.78,-0.78,0.79,0.53,1.25,-1.35,-1.35,-1.36
450.42,-2.14,-2.14,-0.80,-0.80,0.80,0.56,1.28,-1.33,-1.34,-1.34
454.93,-2.14,-2.13,-0.83,-0.82,0.82,0.59,1.30,-1.32,-1.32,-1.31
459.48,-2.14,-2.13,-0.85,-0.84,0.84,0.62,1.33,-1.30,-1.30,-1.29
464.07,-2.13,-2.13,-0.85,-0.86,0.86,0.66,1.36,-1.27,-1.27,-1.27
468.71,-2.13,-2.13,-0.87,-0.87,0.88,0.69,1.38,-1.25,-1.25,-1.25
473.40,-2.13,-2.13,-0.89,-0.90,0.90,0.73,1.40,-1.23,-1.23,-1.23
