frequency,raw,smoothed,error,error_smoothed,equalization,parametric_eq,fixed_band_eq,equalized_raw,equalized_smoothed,target
20.00,-1.94,-1.94,-5.24,-5.24,5.19,5.27,2.35,3.25,3.24,3.30
20.20,-1.92,-1.92,-5.25,-5.25,5.24,5.26,2.42,3.32,3.32,3.33
20.40,-1.90,-1.90,-5.26,-5.26,5.28,5.26,2.49,3.38,3.38,3.36
20.61,-1.89,-1.89,-5.27,-5.28,5.32,5.25,2.57,3.43,3.43,3.38
20.81,-1.90,-1.90,-5.31,-5.31,5.35,5.24,2.64,3.45,3.45,3.41
21.02,-1.91,-1.91,-5.35,-5.34,5.37,5.24,2.72,3.46,3.46,3.44
21.23,-1.93,-1.93,-5.38,-5.38,5.38,5.23,2.79,3.45,3.46,3.45
21.44,-1.94,-1.94,-5.40,-5.40,5.39,5.22,2.88,3.45,3.45,3.46
21.66,-1.94,-1.94,-5.41,-5.41,5.40,5.22,2.96,3.46,3.45,3.47
21.87,-1.94,-1.94,-5.40,-5.41,5.39,5.21,3.05,3.45,3.45,3.47
22.09,-1.92,-1.92,-5.39,-5.39,5.37,5.20,3.13,3.45,3.45,3.48
22.31,-1.88,-1.88,-5.35,-5.35,5.34,5.19,3.22,3.46,3.46,3.47
22.54,-1.83,-1.83,-5.30,-5.30,5.29,5.19,3.32,3.46,3.46,3.47
22.76,-1.77,-1.77,-5.24,-5.24,5.24,5.18,3.41,3.47,3.47,3.47
22.99,-1.71,-1.71,-5.17,-5.17,5.18,5.17,3.51,3.47,3.47,3.46
23.22,-1.65,-1.65,-5.11,-5.11,5.13,5.16,3.61,3.48,3.48,3.46
23.45,-1.60,-1.60,-5.06,-5.06,5.08,5.16,3.71,3.48,3.48,3.46
23.69,-1.56,-1.56,-5.02,-5.02,5.04,5.15,3.82,3.48,3.48,3.46
23.92,-1.53,-1.53,-4.99,-5.00,5.01,5.14,3.92,3.48,3.48,3.46
24.16,-1.52,-1.52,-4.99,-4.98,4.99,5.13,4.03,3.47,3.47,3.47
24.40,-1.52,-1.52,-4.99,-4.98,4.99,5.12,4.14,3.47,3.47,3.47
24.65,-1.53,-1.53,-4.99,-4.99,4.99,5.11,4.25,3.46,3.46,3.46
24.89,-1.55,-1.55,-5.01,-5.01,5.00,5.10,4.36,3.45,3.45,3.46
25.14,-1.57,-1.57,-5.02,-5.02,5.01,5.10,4.48,3.45,3.45,3.46
25.39,-1.59,-1.59,-5.04,-5.04,5.03,5.09,4.59,3.44,3.44,3.45
25.65,-1.60,-1.60,-5.05,-5.05,5.04,5.08,4.71,3.44,3.44,3.45
25.91,-1.61,-1.61,-5.05,-5.06,5.05,5.07,4.82,3.44,3.44,3.44
26.16,-1.62,-1.62,-5.06,-5.06,5.06,5.06,4.94,3.44,3.44,3.44
26.43,-1.63,-1.63,-5.07,-5.07,5.07,5.05,5.05,3.44,3.44,3.44
26.69,-1.64,-1.64,-5.08,-5.08,5.08,5.04,5.17,3.44,3.44,3.44
26.96,-1.65,-1.65,-5.09,-5.09,5.09,5.03,5.28,3.44,3.44,3.44
27.23,-1.66,-1.66,-5.09,-5.10,5.11,5.02,5.39,3.45,3.44,3.44
27.50,-1.69,-1.68,-5.12,-5.12,5.13,5.01,5.50,3.44,3.44,3.43
27.77,-1.71,-1.71,-5.13,-5.14,5.15,5.00,5.60,3.44,3.43,3.42
28.05,-1.74,-1.74,-5.16,-5.16,5.16,4.99,5.70,3.42,3.42,3.42
28.33,-1.77,-1.77,-5.18,-5.18,5.17,4.98,5.79,3.41,3.41,3.41
28.62,-1.79,-1.79,-5.20,-5.20,5.18,4.97,5.88,3.39,3.39,3.41
28.90,-1.80,-1.80,-5.21,-5.20,5.18,4.95,5.96,3.38,3.38,3.41
29.19,-1.79,-1.79,-5.18,-5.19,5.17,4.94,6.04,3.38,3.38,3.40
29.48,-1.77,-1.77,-5.17,-5.17,5.16,4.93,6.11,3.39,3.39,3.40
29.78,-1.75,-1.74,-5.14,-5.14,5.15,4.92,6.17,3.40,3.40,3.39
30.08,-1.72,-1.72,-5.11,-5.11,5.14,4.91,6.22,3.42,3.42,3.39
30.38,-1.71,-1.72,-5.09,-5.10,5.13,4.90,6.26,3.42,3.42,3.38
30.68,-1.72,-1.72,-5.10,-5.10,5.13,4.88,6.29,3.41,3.40,3.38
30.99,-1.75,-1.75,-5.11,-5.11,5.12,4.87,6.32,3.37,3.37,3.36
31.30,-1.77,-1.77,-5.13,-5.13,5.10,4.86,6.33,3.33,3.33,3.36
31.61,-1.77,-1.77,-5.13,-5.12,5.08,4.85,6.34,3.31,3.31,3.36
31.93,-1.75,-1.74,-5.10,-5.09,5.05,4.83,6.33,3.30,3.30,3.35
32.24,-1.70,-1.70,-5.03,-5.04,5.01,4.82,6.31,3.31,3.32,3.33
32.57,-1.64,-1.64,-4.97,-4.97,4.97,4.81,6.29,3.33,3.34,3.33
32.89,-1.57,-1.58,-4.90,-4.90,4.93,4.79,6.26,3.36,3.36,3.33
33.22,-1.53,-1.53,-4.85,-4.85,4.89,4.78,6.21,3.36,3.36,3.32
33.55,-1.51,-1.51,-4.82,-4.83,4.86,4.77,6.16,3.35,3.34,3.31
33.89,-1.52,-1.52,-4.82,-4.82,4.83,4.75,6.10,3.31,3.31,3.30
34.23,-1.53,-1.53,-4.83,-4.83,4.81,4.74,6.04,3.28,3.28,3.30
34.57,-1.55,-1.54,-4.83,-4.83,4.81,4.72,5.97,3.26,3.26,3.29
34.92,-1.55,-1.55,-4.82,-4.82,4.81,4.71,5.90,3.26,3.26,3.27
35.27,-1.55,-1.55,-4.82,-4.81,4.81,4.69,5.82,3.26,3.26,3.27
35.62,-1.55,-1.55,-4.80,-4.81,4.82,4.68,5.74,3.27,3.27,3.26
35.97,-1.56,-1.56,-4.80,-4.81,4.83,4.66,5.65,3.27,3.26,3.24
36.33,-1.59,-1.59,-4.83,-4.82,4.83,4.65,5.56,3.24,3.25,3.24
36.70,-1.62,-1.62,-4.84,-4.84,4.84,4.63,5.47,3.22,3.22,3.22
37.06,-1.65,-1.65,-4.86,-4.86,4.85,4.62,5.38,3.20,3.20,3.21
37.43,-1.68,-1.68,-4.88,-4.88,4.86,4.60,5.29,3.18,3.19,3.21
37.81,-1.70,-1.70,-4.89,-4.89,4.88,4.58,5.20,3.18,3.18,3.19
38.19,-1.71,-1.71,-4.89,-4.89,4.89,4.57,5.11,3.18,3.18,3.18
38.57,-1.72,-1.72,-4.89,-4.89,4.91,4.55,5.02,3.19,3.19,3.17
38.95,-1.74,-1.74,-4.90,-4.89,4.92,4.53,4.93,3.18,3.18,3.16
39.34,-1.76,-1.77,-4.90,-4.91,4.92,4.51,4.84,3.16,3.15,3.14
39.74,-1.80,-1.80,-4.93,-4.93,4.92,4.50,4.75,3.12,3.12,3.13
40.14,-1.83,-1.82,-4.95,-4.94,4.91,4.48,4.67,3.09,3.09,3.12
40.54,-1.84,-1.83,-4.95,-4.94,4.91,4.46,4.59,3.07,3.08,3.11
40.94,-1.81,-1.81,-4.91,-4.90,4.90,4.44,4.51,3.09,3.10,3.10
41.35,-1.77,-1.77,-4.85,-4.86,4.89,4.42,4.43,3.12,3.12,3.08
41.76,-1.73,-1.75,-4.81,-4.82,4.86,4.40,4.36,3.13,3.12,3.08
42.18,-1.74,-1.74,-4.81,-4.81,4.82,4.38,4.29,3.08,3.08,3.07
42.60,-1.75,-1.74,-4.80,-4.80,4.77,4.36,4.22,3.02,3.03,3.05
43.03,-1.74,-1.72,-4.79,-4.77,4.72,4.34,4.16,2.98,2.99,3.05
43.46,-1.67,-1.66,-4.70,-4.69,4.65,4.32,4.09,2.98,2.99,3.03
43.90,-1.58,-1.58,-4.58,-4.59,4.59,4.30,4.03,3.01,3.00,3.00
44.33,-1.49,-1.50,-4.47,-4.49,4.52,4.28,3.98,3.03,3.02,2.99
44.78,-1.44,-1.44,-4.41,-4.41,4.45,4.26,3.93,3.01,3.01,2.97
45.23,-1.40,-1.40,-4.35,-4.35,4.37,4.23,3.88,2.97,2.98,2.95
45.68,-1.37,-1.37,-4.30,-4.30,4.30,4.21,3.83,2.93,2.94,2.93
46.13,-1.33,-1.33,-4.24,-4.24,4.24,4.19,3.79,2.91,2.91,2.91
46.60,-1.29,-1.29,-4.19,-4.19,4.18,4.16,3.74,2.89,2.88,2.90
47.06,-1.25,-1.25,-4.13,-4.14,4.11,4.14,3.71,2.86,2.86,2.88
47.53,-1.22,-1.21,-4.08,-4.08,4.05,4.11,3.67,2.83,2.84,2.86
48.01,-1.17,-1.16,-4.02,-4.01,3.99,4.09,3.64,2.82,2.83,2.85
48.49,-1.11,-1.11,-3.93,-3.93,3.93,4.06,3.61,2.82,2.82,2.82
48.97,-1.06,-1.06,-3.85,-3.85,3.88,4.04,3.58,2.82,2.82,2.79
49.46,-1.03,-1.04,-3.79,-3.79,3.83,4.01,3.56,2.80,2.80,2.76
49.96,-1.03,-1.04,-3.76,-3.77,3.79,3.98,3.53,2.76,2.76,2.73
50.46,-1.06,-1.05,-3.77,-3.76,3.76,3.96,3.51,2.70,2.71,2.71
50.96,-1.08,-1.07,-3.77,-3.76,3.74,3.93,3.49,2.66,2.67,2.69
51.47,-1.08,-1.08,-3.74,-3.74,3.73,3.90,3.48,2.65,2.65,2.66
51.99,-1.08,-1.08,-3.71,-3.72,3.72,3.87,3.46,2.64,2.64,2.64
52.51,-1.09,-1.09,-3.71,-3.71,3.72,3.84,3.45,2.63,2.63,2.62
53.03,-1.11,-1.11,-3.71,-3.71,3.72,3.81,3.43,2.62,2.61,2.60
53.56,-1.14,-1.14,-3.71,-3.72,3.72,3.77,3.42,2.58,2.58,2.57
54.10,-1.18,-1.18,-3.73,-3.73,3.72,3.74,3.41,2.54,2.54,2.55
54.64,-1.21,-1.21,-3.73,-3.73,3.71,3.71,3.40,2.50,2.50,2.52
55.18,-1.23,-1.22,-3.72,-3.72,3.70,3.67,3.38,2.47,2.47,2.49
55.74,-1.22,-1.22,-3.69,-3.69,3.68,3.64,3.37,2.46,2.46,2.47
56.29,-1.22,-1.22,-3.67,-3.66,3.67,3.60,3.36,2.45,2.45,2.45
56.86,-1.21,-1.21,-3.63,-3.63,3.65,3.56,3.35,2.44,2.44,2.42
57.42,-1.21,-1.21,-3.60,-3.60,3.63,3.52,3.33,2.42,2.42,2.39
58.00,-1.20,-1.21,-3.57,-3.58,3.60,3.48,3.32,2.40,2.39,2.37
58.58,-1.22,-1.22,-3.57,-3.57,3.58,3.44,3.30,2.36,2.36,2.35
59.16,-1.22,-1.22,-3.55,-3.56,3.55,3.40,3.28,2.33,2.32,2.33
59.76,-1.23,-1.22,-3.54,-3.53,3.52,3.36,3.26,2.29,2.29,2.31
60.35,-1.21,-1.21,-3.49,-3.49,3.48,3.31,3.24,2.27,2.27,2.28
60.96,-1.18,-1.18,-3.44,-3.44,3.43,3.26,3.21,2.25,2.24,2.26
61.57,-1.15,-1.16,-3.36,-3.38,3.37,3.21,3.18,2.22,2.21,2.22
62.18,-1.13,-1.12,-3.31,-3.31,3.30,3.16,3.15,2.18,2.18,2.18
62.80,-1.09,-1.08,-3.25,-3.23,3.23,3.11,3.12,2.14,2.15,2.16
63.43,-1.02,-1.02,-3.14,-3.15,3.15,3.05,3.08,2.13,2.13,2.12
64.07,-0.95,-0.96,-3.05,-3.05,3.07,2.99,3.05,2.12,2.11,2.10
64.71,-0.90,-0.90,-2.97,-2.97,2.98,2.93,3.01,2.08,2.08,2.07
65.35,-0.85,-0.85,-2.89,-2.89,2.89,2.86,2.96,2.04,2.04,2.04
66.01,-0.80,-0.79,-2.81,-2.81,2.79,2.79,2.92,1.99,2.00,2.01
66.67,-0.73,-0.73,-2.71,-2.71,2.69,2.72,2.87,1.96,1.96,1.98
67.33,-0.65,-0.65,-2.60,-2.61,2.59,2.65,2.82,1.94,1.94,1.95
68.01,-0.57,-0.56,-2.49,-2.49,2.49,2.57,2.77,1.92,1.93,1.92
68.69,-0.48,-0.48,-2.37,-2.38,2.39,2.49,2.71,1.91,1.91,1.89
69.37,-0.41,-0.42,-2.27,-2.28,2.29,2.41,2.66,1.88,1.87,1.86
70.07,-0.36,-0.36,-2.19,-2.19,2.20,2.33,2.60,1.84,1.84,1.83
70.77,-0.32,-0.31,-2.12,-2.11,2.11,2.24,2.54,1.79,1.80,1.80
71.48,-0.26,-0.26,-2.03,-2.03,2.03,2.16,2.48,1.78,1.77,1.77
72.19,-0.22,-0.23,-1.95,-1.96,1.97,2.08,2.42,1.75,1.74,1.74
72.91,-0.21,-0.21,-1.91,-1.91,1.92,2.00,2.36,1.71,1.71,1.70
73.64,-0.21,-0.20,-1.87,-1.87,1.87,1.93,2.30,1.67,1.67,1.66
74.38,-0.21,-0.21,-1.84,-1.84,1.84,1.87,2.24,1.63,1.63,1.63
75.12,-0.21,-0.21,-1.81,-1.81,1.81,1.81,2.18,1.60,1.60,1.60
75.87,-0.22,-0.22,-1.79,-1.79,1.78,1.77,2.12,1.56,1.57,1.57
76.63,-0.23,-0.23,-1.77,-1.76,1.76,1.73,2.05,1.53,1.53,1.54
77.40,-0.24,-0.24,-1.74,-1.75,1.74,1.70,1.99,1.50,1.50,1.51
78.17,-0.26,-0.26,-1.72,-1.73,1.72,1.68,1.93,1.46,1.46,1.46
78.95,-0.27,-0.27,-1.71,-1.70,1.69,1.67,1.87,1.43,1.43,1.44
79.74,-0.27,-0.28,-1.68,-1.68,1.67,1.66,1.81,1.40,1.40,1.41
80.54,-0.28,-0.28,-1.65,-1.65,1.65,1.65,1.75,1.37,1.38,1.37
81.35,-0.29,-0.28,-1.63,-1.62,1.63,1.64,1.69,1.34,1.35,1.34
82.16,-0.28,-0.29,-1.58,-1.60,1.61,1.63,1.64,1.33,1.32,1.30
82.98,-0.31,-0.31,-1.59,-1.58,1.59,1.62,1.58,1.28,1.28,1.28
83.81,-0.35,-0.34,-1.58,-1.58,1.57,1.61,1.52,1.22,1.23,1.23
84.65,-0.38,-0.37,-1.57,-1.57,1.56,1.59,1.47,1.18,1.18,1.19
85.50,-0.39,-0.39,-1.55,-1.55,1.54,1.57,1.41,1.15,1.15,1.16
86.35,-0.39,-0.39,-1.51,-1.52,1.52,1.55,1.36,1.13,1.12,1.12
87.22,-0.40,-0.40,-1.48,-1.49,1.49,1.52,1.31,1.09,1.09,1.08
88.09,-0.42,-0.42,-1.46,-1.46,1.47,1.50,1.26,1.05,1.05,1.04
88.97,-0.43,-0.43,-1.44,-1.44,1.44,1.46,1.21,1.01,1.01,1.01
89.86,-0.44,-0.44,-1.41,-1.41,1.40,1.43,1.16,0.96,0.96,0.97
90.76,-0.44,-0.44,-1.36,-1.37,1.36,1.40,1.11,0.92,0.92,0.92
91.66,-0.45,-0.45,-1.34,-1.33,1.33,1.36,1.06,0.88,0.88,0.89
92.58,-0.45,-0.45,-1.28,-1.28,1.29,1.32,1.01,0.84,0.84,0.83
93.51,-0.44,-0.45,-1.24,-1.25,1.24,1.28,0.97,0.80,0.80,0.80
94.44,-0.45,-0.45,-1.20,-1.20,1.20,1.24,0.92,0.75,0.76,0.76
95.39,-0.45,-0.45,-1.16,-1.16,1.16,1.20,0.88,0.71,0.71,0.71
96.34,-0.45,-0.45,-1.11,-1.11,1.12,1.16,0.83,0.67,0.66,0.66
97.30,-0.46,-0.46,-1.07,-1.07,1.08,1.11,0.79,0.62,0.62,0.61
98.28,-0.48,-0.47,-1.05,-1.04,1.04,1.07,0.75,0.56,0.57,0.57
99.26,-0.49,-0.49,-1.01,-1.01,1.01,1.02,0.70,0.52,0.52,0.52
100.25,-0.49,-0.50,-0.96,-0.98,0.97,0.97,0.66,0.49,0.47,0.47
101.25,-0.52,-0.51,-0.95,-0.94,0.94,0.93,0.62,0.42,0.43,0.43
102.27,-0.53,-0.53,-0.91,-0.91,0.91,0.88,0.58,0.38,0.38,0.38
103.29,-0.54,-0.54,-0.87,-0.87,0.87,0.83,0.55,0.33,0.33,0.33
104.32,-0.54,-0.54,-0.83,-0.83,0.83,0.78,0.51,0.29,0.28,0.29
105.37,-0.55,-0.55,-0.79,-0.79,0.78,0.74,0.47,0.23,0.24,0.24
106.42,-0.55,-0.54,-0.75,-0.74,0.74,0.69,0.43,0.19,0.19,0.20
107.48,-0.53,-0.54,-0.68,-0.68,0.69,0.64,0.40,0.16,0.15,0.15
108.56,-0.53,-0.53,-0.62,-0.63,0.64,0.59,0.36,0.11,0.10,0.09
109.64,-0.53,-0.53,-0.58,-0.58,0.58,0.55,0.33,0.05,0.06,0.05
110.74,-0.53,-0.53,-0.53,-0.53,0.53,0.50,0.29,-0.00,0.00,0.00
111.85,-0.52,-0.52,-0.48,-0.47,0.47,0.45,0.26,-0.05,-0.05,-0.04
112.97,-0.52,-0.52,-0.41,-0.42,0.41,0.41,0.22,-0.10,-0.11,-0.11
114.10,-0.52,-0.52,-0.37,-0.36,0.36,0.36,0.19,-0.16,-0.16,-0.15
115.24,-0.52,-0.51,-0.31,-0.30,0.30,0.31,0.16,-0.22,-0.21,-0.21
116.39,-0.51,-0.51,-0.25,-0.25,0.25,0.27,0.13,-0.26,-0.26,-0.26
117.55,-0.50,-0.51,-0.18,-0.19,0.20,0.22,0.09,-0.30,-0.31,-0.32
118.73,-0.52,-0.51,-0.15,-0.14,0.15,0.17,0.06,-0.37,-0.36,-0.37
119.92,-0.52,-0.51,-0.11,-0.09,0.10,0.13,0.03,-0.42,-0.41,-0.41
121.12,-0.51,-0.52,-0.04,-0.05,0.06,0.08,0.00,-0.45,-0.46,-0.47
122.33,-0.51,-0.53,0.01,-0.01,0.01,0.04,-0.03,-0.50,-0.52,-0.52
123.55,-0.56,-0.53,0.00,0.03,-0.04,-0.01,-0.06,-0.60,-0.57,-0.56
124.79,-0.54,-0.54,0.07,0.07,-0.09,-0.06,-0.09,-0.63,-0.63,-0.61
126.03,-0.53,-0.54,0.13,0.13,-0.14,-0.10,-0.12,-0.67,-0.67,-0.66
127.29,-0.53,-0.52,0.18,0.19,-0.18,-0.15,-0.14,-0.71,-0.71,-0.71
128.57,-0.52,-0.52,0.25,0.24,-0.23,-0.20,-0.17,-0.75,-0.76,-0.77
129.85,-0.53,-0.52,0.29,0.30,-0.28,-0.25,-0.20,-0.81,-0.81,-0.82
131.15,-0.53,-0.53,0.34,0.34,-0.33,-0.29,-0.23,-0.86,-0.86,-0.87
132.46,-0.53,-0.54,0.39,0.38,-0.38,-0.34,-0.26,-0.91,-0.92,-0.92
133.79,-0.55,-0.54,0.40,0.42,-0.43,-0.39,-0.29,-0.98,-0.97,-0.95
135.12,-0.54,-0.54,0.47,0.46,-0.47,-0.44,-0.31,-1.01,-1.01,-1.01
136.48,-0.53,-0.53,0.51,0.51,-0.52,-0.49,-0.34,-1.05,-1.05,-1.04
137.84,-0.52,-0.52,0.57,0.57,-0.56,-0.54,-0.37,-1.08,-1.08,-1.09
139.22,-0.53,-0.53,0.61,0.61,-0.60,-0.59,-0.40,-1.13,-1.12,-1.14
140.61,-0.53,-0.53,0.66,0.65,-0.64,-0.64,-0.42,-1.17,-1.17,-1.18
142.02,-0.54,-0.54,0.67,0.68,-0.68,-0.69,-0.45,-1.22,-1.22,-1.21
143.44,-0.54,-0.54,0.71,0.71,-0.72,-0.74,-0.48,-1.26,-1.26,-1.25
144.87,-0.54,-0.54,0.75,0.74,-0.75,-0.79,-0.51,-1.29,-1.29,-1.29
146.32,-0.54,-0.54,0.79,0.78,-0.79,-0.84,-0.54,-1.33,-1.33,-1.33
147.78,-0.54,-0.53,0.82,0.83,-0.82,-0.89,-0.57,-1.36,-1.36,-1.36
149.26,-0.53,-0.53,0.87,0.86,-0.86,-0.93,-0.60,-1.39,-1.40,-1.39
150.75,-0.53,-0.54,0.91,0.90,-0.90,-0.98,-0.63,-1.43,-1.43,-1.44
152.26,-0.55,-0.54,0.93,0.94,-0.94,-1.03,-0.66,-1.49,-1.48,-1.48
153.78,-0.54,-0.54,0.97,0.98,-0.98,-1.07,-0.69,-1.52,-1.52,-1.51
155.32,-0.54,-0.54,1.02,1.01,-1.02,-1.12,-0.72,-1.55,-1.56,-1.56
156.88,-0.54,-0.54,1.05,1.05,-1.05,-1.16,-0.76,-1.59,-1.60,-1.59
158.44,-0.55,-0.55,1.09,1.09,-1.09,-1.21,-0.79,-1.64,-1.64,-1.63
160.03,-0.55,-0.54,1.13,1.13,-1.13,-1.25,-0.82,-1.68,-1.67,-1.68
161.63,-0.54,-0.55,1.18,1.17,-1.17,-1.29,-0.86,-1.71,-1.71,-1.72
163.24,-0.54,-0.55,1.22,1.21,-1.20,-1.33,-0.89,-1.74,-1.75,-1.76
164.88,-0.56,-0.55,1.23,1.24,-1.24,-1.37,-0.93,-1.80,-1.79,-1.79
166.53,-0.55,-0.55,1.28,1.28,-1.28,-1.41,-0.97,-1.83,-1.83,-1.83
168.19,-0.55,-0.55,1.32,1.32,-1.32,-1.44,-1.01,-1.87,-1.87,-1.87
169.87,-0.54,-0.55,1.37,1.35,-1.36,-1.48,-1.05,-1.90,-1.91,-1.90
171.57,-0.56,-0.55,1.38,1.39,-1.40,-1.51,-1.09,-1.96,-1.95,-1.94
173.29,-0.55,-0.54,1.43,1.44,-1.45,-1.55,-1.13,-2.00,-1.98,-1.98
175.02,-0.51,-0.53,1.50,1.49,-1.49,-1.58,-1.17,-2.00,-2.02,-2.01
176.77,-0.51,-0.51,1.55,1.55,-1.54,-1.61,-1.21,-2.05,-2.05,-2.06
178.54,-0.51,-0.50,1.59,1.59,-1.58,-1.64,-1.26,-2.09,-2.09,-2.10
180.32,-0.50,-0.50,1.64,1.63,-1.63,-1.67,-1.30,-2.13,-2.13,-2.13
182.13,-0.50,-0.50,1.67,1.67,-1.68,-1.70,-1.35,-2.18,-2.17,-2.17
183.95,-0.49,-0.49,1.72,1.72,-1.72,-1.73,-1.40,-2.21,-2.21,-2.21
185.79,-0.48,-0.48,1.76,1.76,-1.77,-1.76,-1.44,-2.25,-2.25,-2.24
187.65,-0.47,-0.47,1.81,1.81,-1.81,-1.78,-1.49,-2.28,-2.28,-2.28
189.52,-0.46,-0.46,1.85,1.85,-1.85,-1.81,-1.54,-2.31,-2.31,-2.31
191.42,-0.44,-0.45,1.90,1.90,-1.90,-1.83,-1.59,-2.34,-2.34,-2.34
193.33,-0.44,-0.44,1.93,1.93,-1.94,-1.85,-1.65,-2.38,-2.37,-2.37
195.27,-0.43,-0.42,1.97,1.98,-1.98,-1.87,-1.70,-2.40,-2.40,-2.40
197.22,-0.41,-0.41,2.02,2.02,-2.01,-1.89,-1.75,-2.42,-2.42,-2.43
199.19,-0.40,-0.40,2.06,2.05,-2.05,-1.92,-1.80,-2.44,-2.45,-2.46
201.18,-0.40,-0.40,2.08,2.08,-2.08,-1.93,-1.86,-2.48,-2.48,-2.48
203.19,-0.41,-0.40,2.09,2.10,-2.10,-1.95,-1.91,-2.51,-2.50,-2.50
205.23,-0.39,-0.39,2.13,2.12,-2.13,-1.97,-1.97,-2.52,-2.52,-2.52
207.28,-0.38,-0.38,2.15,2.15,-2.15,-1.99,-2.02,-2.53,-2.54,-2.53
209.35,-0.37,-0.37,2.18,2.18,-2.17,-2.00,-2.07,-2.54,-2.55,-2.55
211.44,-0.38,-0.37,2.20,2.19,-2.19,-2.02,-2.13,-2.57,-2.56,-2.57
213.56,-0.37,-0.37,2.21,2.21,-2.21,-2.03,-2.18,-2.58,-2.58,-2.58
215.69,-0.36,-0.36,2.22,2.22,-2.23,-2.05,-2.23,-2.58,-2.59,-2.58
217.85,-0.36,-0.36,2.24,2.24,-2.24,-2.06,-2.28,-2.60,-2.60,-2.59
220.03,-0.35,-0.35,2.26,2.25,-2.26,-2.08,-2.33,-2.60,-2.61,-2.61
222.23,-0.35,-0.35,2.27,2.27,-2.27,-2.09,-2.38,-2.62,-2.62,-2.62
224.45,-0.34,-0.33,2.27,2.28,-2.28,-2.10,-2.43,-2.62,-2.62,-2.61
226.70,-0.32,-0.32,2.29,2.29,-2.30,-2.11,-2.47,-2.61,-2.62,-2.61
228.96,-0.30,-0.30,2.31,2.31,-2.31,-2.12,-2.51,-2.61,-2.61,-2.61
231.25,-0.29,-0.29,2.31,2.32,-2.32,-2.13,-2.55,-2.60,-2.60,-2.60
233.57,-0.28,-0.28,2.32,2.33,-2.32,-2.14,-2.58,-2.60,-2.60,-2.60
235.90,-0.27,-0.27,2.33,2.34,-2.33,-2.15,-2.62,-2.59,-2.59,-2.60
238.26,-0.26,-0.26,2.34,2.33,-2.33,-2.16,-2.65,-2.59,-2.59,-2.60
240.64,-0.26,-0.27,2.33,2.33,-2.33,-2.16,-2.67,-2.59,-2.59,-2.59
243.05,-0.28,-0.26,2.30,2.31,-2.33,-2.17,-2.70,-2.60,-2.59,-2.58
245.48,-0.26,-0.26,2.31,2.31,-2.32,-2.18,-2.71,-2.58,-2.58,-2.57
247.93,-0.24,-0.25,2.32,2.31,-2.32,-2.19,-2.73,-2.56,-2.56,-2.56
250.41,-0.23,-0.23,2.32,2.31,-2.31,-2.19,-2.74,-2.54,-2.54,-2.55
252.92,-0.23,-0.22,2.30,2.31,-2.30,-2.20,-2.75,-2.53,-2.52,-2.53
255.45,-0.22,-0.22,2.29,2.30,-2.29,-2.20,-2.75,-2.51,-2.51,-2.51
258.00,-0.20,-0.21,2.30,2.28,-2.28,-2.21,-2.75,-2.48,-2.49,-2.50
260.58,-0.21,-0.21,2.27,2.27,-2.27,-2.21,-2.74,-2.48,-2.48,-2.48
263.19,-0.21,-0.21,2.25,2.26,-2.26,-2.21,-2.74,-2.47,-2.46,-2.46
265.82,-0.20,-0.20,2.25,2.24,-2.25,-2.22,-2.73,-2.44,-2.45,-2.45
268.48,-0.20,-0.19,2.22,2.23,-2.23,-2.22,-2.71,-2.43,-2.42,-2.42
271.16,-0.18,-0.18,2.22,2.22,-2.22,-2.22,-2.70,-2.40,-2.40,-2.40
273.87,-0.17,-0.17,2.21,2.21,-2.21,-2.22,-2.68,-2.38,-2.38,-2.38
276.61,-0.17,-0.16,2.19,2.20,-2.20,-2.22,-2.65,-2.37,-2.36,-2.36
279.38,-0.15,-0.15,2.19,2.19,-2.19,-2.22,-2.63,-2.34,-2.34,-2.34
282.17,-0.14,-0.15,2.19,2.18,-2.18,-2.23,-2.61,-2.32,-2.33,-2.33
284.99,-0.15,-0.13,2.15,2.17,-2.17,-2.23,-2.58,-2.32,-2.31,-2.30
287.84,-0.12,-0.12,2.17,2.17,-2.17,-2.23,-2.55,-2.29,-2.29,-2.29
290.72,-0.10,-0.11,2.16,2.16,-2.16,-2.23,-2.52,-2.26,-2.26,-2.26
293.63,-0.09,-0.09,2.16,2.16,-2.15,-2.22,-2.49,-2.24,-2.24,-2.25
296.57,-0.08,-0.08,2.14,2.15,-2.14,-2.22,-2.46,-2.22,-2.22,-2.22
299.53,-0.07,-0.07,2.14,2.13,-2.13,-2.22,-2.43,-2.20,-2.21,-2.21
302.53,-0.07,-0.06,2.12,2.12,-2.12,-2.22,-2.40,-2.19,-2.18,-2.19
305.55,-0.05,-0.05,2.10,2.12,-2.11,-2.22,-2.37,-2.16,-2.16,-2.15
308.61,-0.02,-0.03,2.12,2.10,-2.10,-2.21,-2.34,-2.12,-2.13,-2.14
311.69,-0.02,-0.02,2.09,2.09,-2.09,-2.21,-2.31,-2.11,-2.11,-2.11
314.81,-0.01,-0.00,2.07,2.08,-2.08,-2.21,-2.28,-2.09,-2.09,-2.07
317.96,0.01,0.01,2.07,2.07,-2.08,-2.20,-2.25,-2.06,-2.07,-2.06
321.14,0.03,0.03,2.07,2.06,-2.07,-2.20,-2.22,-2.04,-2.04,-2.04
324.35,0.04,0.04,2.06,2.06,-2.06,-2.20,-2.20,-2.02,-2.02,-2.02
327.59,0.05,0.06,2.05,2.06,-2.05,-2.19,-2.17,-2.00,-2.00,-2.00
330.87,0.07,0.07,2.05,2.05,-2.05,-2.19,-2.15,-1.97,-1.97,-1.98
334.18,0.09,0.08,2.05,2.04,-2.04,-2.18,-2.13,-1.94,-1.95,-1.96
337.52,0.09,0.09,2.04,2.03,-2.02,-2.18,-2.11,-1.93,-1.93,-1.94
340.90,0.09,0.09,2.01,2.02,-2.01,-2.17,-2.09,-1.92,-1.92,-1.92
344.30,0.10,0.10,2.00,2.00,-2.00,-2.16,-2.07,-1.90,-1.90,-1.90
347.75,0.10,0.11,1.98,1.99,-1.99,-2.16,-2.05,-1.89,-1.89,-1.88
351.23,0.12,0.12,1.99,1.98,-1.99,-2.15,-2.04,-1.87,-1.87,-1.86
354.74,0.13,0.13,1.98,1.98,-1.98,-2.14,-2.03,-1.85,-1.85,-1.85
358.28,0.15,0.15,1.98,1.98,-1.98,-2.14,-2.02,-1.83,-1.83,-1.83
361.87,0.18,0.18,1.99,1.99,-1.99,-2.13,-2.01,-1.81,-1.81,-1.81
365.49,0.21,0.21,2.00,2.00,-2.00,-2.12,-2.00,-1.79,-1.79,-1.79
369.14,0.24,0.24,2.03,2.02,-2.02,-2.11,-1.99,-1.78,-1.78,-1.78
372.83,0.27,0.27,2.04,2.04,-2.05,-2.10,-1.99,-1.78,-1.78,-1.77
376.56,0.31,0.31,2.07,2.06,-2.08,-2.09,-1.99,-1.77,-1.77,-1.76
380.33,0.36,0.37,2.09,2.10,-2.12,-2.09,-1.99,-1.76,-1.75,-1.73
384.13,0.43,0.43,2.15,2.15,-2.15,-2.08,-1.99,-1.72,-1.73,-1.72
387.97,0.50,0.49,2.21,2.21,-2.20,-2.07,-1.99,-1.69,-1.70,-1.71
391.85,0.55,0.55,2.26,2.25,-2.24,-2.06,-1.99,-1.69,-1.68,-1.70
395.77,0.60,0.60,2.29,2.29,-2.28,-2.04,-1.99,-1.68,-1.68,-1.69
399.73,0.64,0.64,2.32,2.32,-2.32,-2.03,-2.00,-1.68,-1.68,-1.68
403.72,0.68,0.68,2.35,2.35,-2.36,-2.02,-2.00,-1.68,-1.68,-1.67
407.76,0.72,0.72,2.38,2.38,-2.40,-2.01,-2.01,-1.67,-1.67,-1.66
411.84,0.77,0.77,2.41,2.41,-2.43,-2.00,-2.02,-1.66,-1.66,-1.64
415.96,0.81,0.81,2.44,2.45,-2.45,-1.99,-2.03,-1.64,-1.64,-1.63
420.12,0.85,0.85,2.47,2.47,-2.47,-1.97,-2.03,-1.62,-1.62,-1.62
424.32,0.88,0.88,2.50,2.49,-2.48,-1.96,-2.04,-1.60,-1.60,-1.61
428.56,0.89,0.89,2.50,2.50,-2.48,-1.95,-2.05,-1.59,-1.59,-1.61
432.85,0.88,0.88,2.48,2.48,-2.46,-1.93,-2.06,-1.58,-1.58,-1.60
437.18,0.86,0.85,2.45,2.44,-2.43,-1.92,-2.07,-1.57,-1.57,-1.59
441.55,0.81,0.82,2.38,2.39,-2.38,-1.90,-2.08,-1.57,-1.56,-1.57
445.96,0.76,0.77,2.32,2.33,-2.32,-1.89,-2.08,-1.56,-1.55,-1.56
450.42,0.72,0.71,2.27,2.26,-2.26,-1.87,-2.09,-1.53,-1.55,-1.55
454.93,0.65,0.65,2.18,2.19,-2.19,-1.86,-2.09,-1.54,-1.54,-1.53
459.48,0.59,0.59,2.11,2.11,-2.12,-1.84,-2.10,-1.53,-1.53,-1.52
464.07,0.54,0.54,2.04,2.05,-2.07,-1.82,-2.10,-1.53,-1.52,-1.50
468.71,0.51,0.51,2.00,2.00,-2.02,-1.81,-2.10,-1.51,-1.51,-1.48
473.40,0.49,0.49,1.97,1.96,-1.98,-1.79,-2.10,-1.49,-1.49,-1.47
478.13,0.49,0.49,1.95,1.95,-1.96,-1.77,-2.09,-1.47,-1.47,-1.46
