frequency,raw,smoothed,error,error_smoothed,equalization,parametric_eq,fixed_band_eq,equalized_raw,equalized_smoothed,target
20.00,4.52,4.52,-2.42,-2.42,2.42,1.66,0.58,6.94,6.94,6.94
20.20,4.56,4.55,-2.38,-2.38,2.38,1.66,0.59,6.94,6.94,6.94
20.40,4.59,4.59,-2.35,-2.35,2.35,1.66,0.61,6.93,6.94,6.94
20.61,4.63,4.63,-2.31,-2.31,2.31,1.66,0.63,6.94,6.94,6.94
20.81,4.66,4.66,-2.28,-2.28,2.27,1.66,0.65,6.93,6.93,6.94
21.02,4.70,4.70,-2.24,-2.24,2.24,1.66,0.67,6.94,6.93,6.93
21.23,4.73,4.73,-2.21,-2.20,2.20,1.66,0.69,6.93,6.93,6.93
21.44,4.77,4.77,-2.16,-2.17,2.17,1.66,0.71,6.94,6.93,6.93
21.66,4.80,4.80,-2.13,-2.13,2.13,1.66,0.73,6.93,6.93,6.93
21.87,4.84,4.84,-2.09,-2.10,2.10,1.66,0.75,6.93,6.93,6.93
22.09,4.87,4.87,-2.06,-2.06,2.06,1.66,0.77,6.93,6.93,6.93
22.31,4.91,4.90,-2.02,-2.03,2.03,1.66,0.79,6.93,6.93,6.93
22.54,4.94,4.94,-1.99,-1.99,1.99,1.66,0.82,6.93,6.93,6.93
22.76,4.97,4.97,-1.96,-1.96,1.95,1.66,0.84,6.92,6.92,6.93
22.99,5.01,5.00,-1.92,-1.92,1.92,1.66,0.86,6.93,6.92,6.93
23.22,5.04,5.04,-1.89,-1.89,1.88,1.66,0.89,6.92,6.92,6.93
23.45,5.08,5.08,-1.85,-1.85,1.85,1.66,0.91,6.93,6.93,6.92
23.69,5.11,5.11,-1.82,-1.82,1.82,1.66,0.94,6.93,6.93,6.92
23.92,5.14,5.14,-1.78,-1.79,1.79,1.66,0.97,6.93,6.93,6.92
24.16,5.16,5.16,-1.76,-1.76,1.76,1.66,0.99,6.92,6.93,6.92
24.40,5.19,5.18,-1.73,-1.74,1.74,1.66,1.02,6.93,6.92,6.92
24.65,5.20,5.20,-1.72,-1.72,1.72,1.66,1.05,6.92,6.92,6.92
24.89,5.22,5.22,-1.70,-1.70,1.70,1.66,1.07,6.92,6.92,6.92
25.14,5.23,5.23,-1.69,-1.69,1.68,1.66,1.10,6.91,6.91,6.92
25.39,5.25,5.24,-1.67,-1.67,1.67,1.66,1.13,6.91,6.91,6.91
25.65,5.26,5.26,-1.66,-1.65,1.65,1.66,1.16,6.91,6.91,6.91
25.91,5.28,5.28,-1.63,-1.63,1.63,1.66,1.19,6.91,6.91,6.91
26.16,5.30,5.29,-1.61,-1.62,1.62,1.66,1.22,6.91,6.91,6.91
26.43,5.31,5.31,-1.60,-1.60,1.60,1.66,1.24,6.91,6.91,6.91
26.69,5.33,5.33,-1.58,-1.58,1.58,1.66,1.27,6.91,6.91,6.91
26.96,5.35,5.34,-1.56,-1.56,1.56,1.66,1.30,6.91,6.91,6.91
27.23,5.36,5.36,-1.55,-1.54,1.54,1.66,1.33,6.90,6.91,6.90
27.50,5.38,5.37,-1.52,-1.53,1.53,1.66,1.35,6.91,6.90,6.90
27.77,5.39,5.39,-1.51,-1.51,1.51,1.65,1.38,6.90,6.90,6.90
28.05,5.40,5.40,-1.50,-1.50,1.49,1.65,1.41,6.89,6.90,6.90
28.33,5.42,5.42,-1.48,-1.48,1.48,1.65,1.43,6.89,6.89,6.90
28.62,5.44,5.43,-1.46,-1.46,1.46,1.65,1.45,6.90,6.89,6.89
28.90,5.45,5.45,-1.44,-1.44,1.44,1.65,1.47,6.89,6.89,6.89
29.19,5.46,5.46,-1.43,-1.43,1.43,1.65,1.49,6.88,6.89,6.89
29.48,5.48,5.48,-1.41,-1.41,1.41,1.65,1.51,6.89,6.89,6.89
29.78,5.49,5.49,-1.40,-1.40,1.40,1.65,1.53,6.89,6.89,6.88
30.08,5.50,5.50,-1.38,-1.39,1.39,1.65,1.55,6.88,6.88,6.88
30.38,5.50,5.50,-1.38,-1.38,1.38,1.65,1.56,6.88,6.88,6.88
30.68,5.51,5.51,-1.37,-1.37,1.37,1.65,1.57,6.88,6.88,6.88
30.99,5.51,5.51,-1.37,-1.37,1.36,1.65,1.58,6.87,6.87,6.87
31.30,5.51,5.51,-1.36,-1.36,1.36,1.65,1.59,6.87,6.87,6.87
31.61,5.51,5.51,-1.36,-1.36,1.36,1.65,1.60,6.87,6.87,6.87
31.93,5.51,5.51,-1.36,-1.36,1.36,1.65,1.61,6.87,6.86,6.86
32.24,5.50,5.50,-1.36,-1.36,1.36,1.65,1.61,6.86,6.86,6.86
32.57,5.50,5.50,-1.36,-1.36,1.36,1.65,1.61,6.86,6.86,6.86
32.89,5.49,5.49,-1.37,-1.37,1.37,1.65,1.61,6.85,6.85,6.85
33.22,5.48,5.48,-1.37,-1.37,1.37,1.65,1.61,6.85,6.85,6.85
33.55,5.47,5.47,-1.38,-1.37,1.37,1.65,1.61,6.84,6.84,6.85
33.89,5.47,5.47,-1.37,-1.37,1.37,1.65,1.60,6.84,6.84,6.84
34.23,5.47,5.46,-1.37,-1.37,1.37,1.65,1.60,6.84,6.83,6.84
34.57,5.46,5.46,-1.37,-1.37,1.37,1.65,1.59,6.83,6.83,6.83
34.92,5.46,5.46,-1.37,-1.37,1.36,1.65,1.59,6.82,6.83,6.83
35.27,5.47,5.46,-1.36,-1.36,1.36,1.65,1.58,6.83,6.82,6.82
35.62,5.47,5.46,-1.35,-1.35,1.36,1.65,1.57,6.82,6.82,6.82
35.97,5.46,5.46,-1.36,-1.35,1.36,1.65,1.56,6.81,6.82,6.81
36.33,5.46,5.46,-1.35,-1.35,1.36,1.65,1.55,6.81,6.81,6.81
36.70,5.45,5.45,-1.35,-1.35,1.36,1.65,1.55,6.81,6.81,6.80
37.06,5.44,5.44,-1.36,-1.36,1.36,1.65,1.54,6.80,6.80,6.80
37.43,5.43,5.42,-1.36,-1.37,1.37,1.65,1.53,6.79,6.79,6.79
37.81,5.41,5.41,-1.38,-1.37,1.37,1.65,1.52,6.78,6.78,6.78
38.19,5.40,5.40,-1.38,-1.38,1.38,1.65,1.51,6.77,6.77,6.78
38.57,5.39,5.39,-1.38,-1.39,1.38,1.65,1.50,6.77,6.77,6.77
38.95,5.38,5.38,-1.39,-1.39,1.39,1.65,1.50,6.76,6.76,6.77
39.34,5.37,5.37,-1.39,-1.39,1.39,1.65,1.49,6.76,6.76,6.76
39.74,5.36,5.36,-1.39,-1.39,1.40,1.65,1.48,6.76,6.76,6.75
40.14,5.35,5.34,-1.40,-1.40,1.40,1.65,1.48,6.75,6.75,6.74
40.54,5.33,5.33,-1.41,-1.41,1.41,1.65,1.47,6.74,6.74,6.74
40.94,5.31,5.31,-1.42,-1.42,1.41,1.65,1.47,6.72,6.72,6.73
41.35,5.30,5.29,-1.42,-1.42,1.42,1.64,1.47,6.72,6.71,6.72
41.76,5.28,5.28,-1.43,-1.43,1.43,1.64,1.47,6.70,6.71,6.71
42.18,5.27,5.27,-1.43,-1.43,1.43,1.64,1.47,6.70,6.70,6.70
42.60,5.26,5.25,-1.43,-1.44,1.44,1.64,1.47,6.70,6.69,6.69
43.03,5.24,5.24,-1.44,-1.44,1.44,1.64,1.47,6.68,6.69,6.68
43.46,5.23,5.22,-1.44,-1.45,1.45,1.64,1.47,6.68,6.68,6.67
43.90,5.21,5.20,-1.45,-1.46,1.46,1.64,1.48,6.67,6.66,6.66
44.33,5.18,5.18,-1.47,-1.47,1.47,1.64,1.48,6.65,6.65,6.65
44.78,5.16,5.16,-1.48,-1.48,1.48,1.64,1.49,6.64,6.64,6.64
45.23,5.14,5.13,-1.49,-1.49,1.49,1.64,1.50,6.63,6.62,6.63
45.68,5.11,5.11,-1.51,-1.50,1.50,1.64,1.51,6.61,6.62,6.62
46.13,5.09,5.09,-1.52,-1.52,1.51,1.64,1.52,6.60,6.60,6.60
46.60,5.07,5.06,-1.52,-1.53,1.53,1.64,1.53,6.59,6.59,6.59
47.06,5.04,5.04,-1.54,-1.54,1.54,1.64,1.54,6.57,6.58,6.58
47.53,5.02,5.02,-1.55,-1.55,1.55,1.64,1.56,6.56,6.56,6.56
48.01,5.00,4.99,-1.55,-1.56,1.55,1.64,1.57,6.55,6.55,6.55
48.49,4.97,4.97,-1.57,-1.56,1.56,1.64,1.59,6.53,6.53,6.53
48.97,4.95,4.95,-1.57,-1.57,1.57,1.64,1.60,6.52,6.52,6.52
49.46,4.93,4.93,-1.58,-1.58,1.58,1.64,1.62,6.50,6.50,6.50
49.96,4.91,4.91,-1.58,-1.58,1.58,1.64,1.64,6.49,6.49,6.49
50.46,4.88,4.88,-1.59,-1.59,1.59,1.64,1.65,6.47,6.47,6.47
50.96,4.86,4.85,-1.59,-1.60,1.60,1.64,1.67,6.46,6.45,6.45
51.47,4.83,4.83,-1.61,-1.61,1.60,1.64,1.69,6.43,6.43,6.43
51.99,4.80,4.80,-1.62,-1.61,1.61,1.64,1.71,6.41,6.41,6.42
52.51,4.78,4.77,-1.62,-1.62,1.62,1.63,1.73,6.40,6.39,6.40
53.03,4.75,4.75,-1.63,-1.63,1.62,1.63,1.75,6.37,6.38,6.38
53.56,4.73,4.73,-1.63,-1.63,1.63,1.63,1.77,6.36,6.36,6.36
54.10,4.70,4.70,-1.64,-1.64,1.64,1.63,1.79,6.34,6.34,6.33
54.64,4.67,4.67,-1.64,-1.64,1.65,1.63,1.81,6.31,6.32,6.31
55.18,4.64,4.64,-1.65,-1.65,1.65,1.63,1.82,6.29,6.29,6.29
55.74,4.61,4.61,-1.66,-1.66,1.66,1.63,1.84,6.27,6.27,6.27
56.29,4.57,4.57,-1.67,-1.67,1.67,1.63,1.85,6.24,6.24,6.24
56.86,4.54,4.53,-1.68,-1.68,1.68,1.63,1.87,6.22,6.22,6.22
57.42,4.50,4.50,-1.69,-1.69,1.69,1.63,1.88,6.19,6.19,6.19
58.00,4.47,4.47,-1.70,-1.70,1.70,1.63,1.89,6.16,6.16,6.17
58.58,4.44,4.43,-1.70,-1.70,1.70,1.64,1.90,6.14,6.14,6.14
59.16,4.40,4.40,-1.71,-1.71,1.71,1.64,1.91,6.11,6.11,6.11
59.76,4.37,4.37,-1.71,-1.71,1.71,1.64,1.91,6.08,6.08,6.08
60.35,4.34,4.34,-1.71,-1.72,1.72,1.64,1.91,6.05,6.05,6.05
60.96,4.31,4.31,-1.71,-1.72,1.72,1.64,1.91,6.03,6.02,6.02
61.57,4.27,4.27,-1.72,-1.72,1.72,1.64,1.91,5.99,5.99,5.99
62.18,4.24,4.23,-1.72,-1.72,1.72,1.64,1.90,5.96,5.95,5.96
62.80,4.20,4.20,-1.73,-1.72,1.72,1.64,1.90,5.92,5.92,5.92
63.43,4.17,4.17,-1.72,-1.72,1.72,1.64,1.89,5.89,5.89,5.89
64.07,4.14,4.14,-1.72,-1.72,1.72,1.64,1.87,5.85,5.85,5.85
64.71,4.11,4.11,-1.71,-1.71,1.72,1.64,1.86,5.82,5.82,5.82
65.35,4.07,4.07,-1.71,-1.71,1.71,1.64,1.84,5.78,5.79,5.78
66.01,4.04,4.04,-1.71,-1.71,1.71,1.64,1.82,5.75,5.75,5.74
66.67,4.00,4.00,-1.71,-1.71,1.71,1.64,1.80,5.71,5.71,5.70
67.33,3.96,3.96,-1.71,-1.71,1.71,1.64,1.77,5.66,5.66,5.66
68.01,3.92,3.92,-1.71,-1.70,1.70,1.64,1.75,5.62,5.62,5.62
68.69,3.88,3.88,-1.70,-1.70,1.70,1.63,1.72,5.57,5.58,5.58
69.37,3.85,3.84,-1.69,-1.69,1.69,1.63,1.69,5.54,5.54,5.54
70.07,3.81,3.81,-1.69,-1.68,1.68,1.63,1.66,5.49,5.49,5.49
70.77,3.78,3.78,-1.67,-1.67,1.67,1.63,1.63,5.45,5.45,5.45
71.48,3.74,3.74,-1.66,-1.66,1.66,1.62,1.59,5.40,5.40,5.40
72.19,3.71,3.71,-1.65,-1.65,1.65,1.62,1.56,5.36,5.36,5.36
72.91,3.67,3.67,-1.64,-1.64,1.64,1.61,1.52,5.31,5.31,5.31
73.64,3.63,3.63,-1.63,-1.63,1.63,1.60,1.48,5.26,5.26,5.26
74.38,3.59,3.59,-1.62,-1.62,1.62,1.59,1.45,5.20,5.21,5.21
75.12,3.56,3.55,-1.60,-1.60,1.60,1.58,1.41,5.16,5.16,5.16
75.87,3.52,3.52,-1.59,-1.59,1.59,1.57,1.37,5.11,5.11,5.10
76.63,3.48,3.48,-1.57,-1.57,1.57,1.56,1.33,5.05,5.05,5.05
77.40,3.44,3.44,-1.56,-1.56,1.56,1.55,1.30,5.00,5.00,5.00
78.17,3.40,3.40,-1.54,-1.54,1.54,1.53,1.26,4.94,4.94,4.94
78.95,3.36,3.36,-1.53,-1.53,1.52,1.52,1.22,4.88,4.88,4.88
79.74,3.32,3.32,-1.51,-1.51,1.50,1.50,1.18,4.82,4.83,4.83
80.54,3.29,3.28,-1.48,-1.48,1.49,1.48,1.14,4.77,4.77,4.77
81.35,3.25,3.25,-1.46,-1.46,1.47,1.46,1.11,4.71,4.71,4.71
82.16,3.21,3.21,-1.44,-1.44,1.44,1.44,1.07,4.65,4.65,4.65
82.98,3.17,3.17,-1.42,-1.42,1.42,1.42,1.04,4.59,4.59,4.59
83.81,3.13,3.13,-1.40,-1.40,1.40,1.39,1.00,4.53,4.53,4.53
84.65,3.09,3.09,-1.38,-1.38,1.38,1.37,0.96,4.46,4.46,4.46
85.50,3.05,3.05,-1.35,-1.35,1.35,1.34,0.93,4.40,4.40,4.40
86.35,3.01,3.01,-1.33,-1.33,1.33,1.32,0.90,4.34,4.34,4.34
87.22,2.97,2.97,-1.30,-1.30,1.30,1.29,0.86,4.27,4.27,4.27
88.09,2.93,2.93,-1.28,-1.28,1.28,1.27,0.83,4.21,4.21,4.20
88.97,2.89,2.88,-1.25,-1.25,1.25,1.24,0.80,4.14,4.14,4.14
89.86,2.84,2.84,-1.23,-1.23,1.23,1.21,0.77,4.07,4.07,4.07
90.76,2.80,2.80,-1.21,-1.20,1.20,1.19,0.74,4.00,4.00,4.00
91.66,2.76,2.76,-1.18,-1.18,1.17,1.16,0.71,3.93,3.93,3.93
92.58,2.72,2.72,-1.15,-1.15,1.15,1.13,0.68,3.86,3.86,3.87
93.51,2.68,2.68,-1.12,-1.12,1.12,1.10,0.65,3.80,3.79,3.80
94.44,2.64,2.64,-1.09,-1.09,1.09,1.07,0.62,3.73,3.73,3.72
95.39,2.60,2.60,-1.06,-1.06,1.06,1.04,0.59,3.66,3.66,3.65
96.34,2.56,2.56,-1.03,-1.02,1.03,1.02,0.57,3.58,3.59,3.58
97.30,2.52,2.52,-0.99,-0.99,1.00,0.99,0.54,3.51,3.51,3.51
98.28,2.48,2.47,-0.96,-0.97,0.97,0.96,0.51,3.44,3.44,3.44
99.26,2.43,2.43,-0.94,-0.94,0.94,0.93,0.49,3.36,3.37,3.37
100.25,2.39,2.39,-0.91,-0.91,0.90,0.90,0.46,3.29,3.29,3.29
101.25,2.35,2.35,-0.87,-0.88,0.87,0.87,0.44,3.22,3.22,3.22
102.27,2.31,2.31,-0.84,-0.84,0.84,0.84,0.42,3.15,3.15,3.15
103.29,2.27,2.27,-0.81,-0.81,0.81,0.82,0.39,3.08,3.08,3.08
104.32,2.23,2.23,-0.78,-0.78,0.78,0.79,0.37,3.00,3.00,3.00
105.37,2.19,2.19,-0.74,-0.74,0.74,0.76,0.35,2.93,2.93,2.93
106.42,2.15,2.15,-0.71,-0.71,0.71,0.73,0.33,2.86,2.86,2.86
107.48,2.11,2.11,-0.68,-0.68,0.68,0.70,0.31,2.78,2.78,2.78
108.56,2.07,2.07,-0.64,-0.64,0.64,0.67,0.29,2.71,2.71,2.71
109.64,2.03,2.03,-0.61,-0.61,0.61,0.64,0.27,2.64,2.64,2.64
110.74,1.99,1.98,-0.58,-0.58,0.58,0.62,0.25,2.57,2.57,2.57
111.85,1.94,1.94,-0.56,-0.55,0.55,0.59,0.23,2.49,2.49,2.49
112.97,1.90,1.90,-0.52,-0.52,0.52,0.56,0.22,2.42,2.42,2.42
114.10,1.86,1.86,-0.49,-0.49,0.49,0.53,0.20,2.35,2.35,2.35
115.24,1.82,1.81,-0.46,-0.46,0.46,0.50,0.19,2.28,2.28,2.28
116.39,1.77,1.77,-0.44,-0.44,0.44,0.47,0.17,2.20,2.21,2.21
117.55,1.73,1.73,-0.41,-0.41,0.41,0.44,0.16,2.14,2.14,2.14
118.73,1.69,1.69,-0.38,-0.38,0.38,0.42,0.14,2.07,2.07,2.07
119.92,1.65,1.65,-0.35,-0.35,0.35,0.39,0.13,2.00,2.00,2.00
121.12,1.61,1.60,-0.32,-0.33,0.33,0.36,0.12,1.93,1.93,1.93
122.33,1.56,1.56,-0.30,-0.30,0.30,0.33,0.11,1.86,1.86,1.86
123.55,1.52,1.52,-0.28,-0.28,0.27,0.30,0.10,1.79,1.79,1.79
124.79,1.48,1.48,-0.25,-0.25,0.25,0.27,0.09,1.73,1.73,1.73
126.03,1.44,1.44,-0.22,-0.22,0.22,0.25,0.08,1.66,1.66,1.66
127.29,1.40,1.40,-0.20,-0.20,0.20,0.22,0.08,1.60,1.60,1.60
128.57,1.36,1.36,-0.17,-0.17,0.17,0.19,0.07,1.53,1.53,1.53
129.85,1.32,1.32,-0.15,-0.15,0.15,0.16,0.07,1.47,1.47,1.47
131.15,1.28,1.28,-0.13,-0.12,0.12,0.14,0.06,1.40,1.40,1.40
132.46,1.25,1.24,-0.09,-0.10,0.10,0.11,0.06,1.35,1.34,1.34
133.79,1.21,1.21,-0.07,-0.07,0.07,0.08,0.05,1.28,1.28,1.28
135.12,1.17,1.17,-0.05,-0.05,0.05,0.06,0.05,1.22,1.22,1.22
136.48,1.14,1.13,-0.02,-0.03,0.03,0.03,0.05,1.16,1.16,1.16
137.84,1.10,1.10,-0.00,-0.01,0.00,0.00,0.05,1.10,1.10,1.10
139.22,1.06,1.06,0.01,0.02,-0.02,-0.02,0.05,1.04,1.04,1.04
140.61,1.03,1.03,0.04,0.04,-0.04,-0.05,0.05,0.99,0.99,0.99
142.02,1.00,0.99,0.07,0.06,-0.06,-0.07,0.05,0.94,0.93,0.93
143.44,0.96,0.96,0.08,0.08,-0.08,-0.09,0.05,0.87,0.88,0.88
144.87,0.93,0.93,0.10,0.10,-0.10,-0.12,0.05,0.82,0.82,0.82
146.32,0.90,0.89,0.13,0.12,-0.12,-0.14,0.05,0.77,0.77,0.77
147.78,0.86,0.86,0.14,0.14,-0.14,-0.16,0.05,0.72,0.72,0.72
149.26,0.83,0.83,0.16,0.16,-0.16,-0.18,0.06,0.67,0.67,0.67
150.75,0.80,0.79,0.18,0.17,-0.17,-0.20,0.06,0.62,0.62,0.62
152.26,0.76,0.76,0.19,0.19,-0.19,-0.22,0.06,0.57,0.57,0.57
153.78,0.73,0.73,0.20,0.20,-0.20,-0.23,0.07,0.53,0.53,0.52
155.32,0.69,0.69,0.21,0.21,-0.21,-0.25,0.07,0.48,0.48,0.48
156.88,0.66,0.65,0.23,0.22,-0.22,-0.26,0.07,0.43,0.43,0.43
158.44,0.62,0.62,0.23,0.23,-0.23,-0.27,0.08,0.38,0.38,0.39
160.03,0.58,0.58,0.23,0.24,-0.24,-0.29,0.08,0.33,0.34,0.34
161.63,0.55,0.54,0.26,0.25,-0.25,-0.30,0.08,0.30,0.29,0.29
163.24,0.51,0.51,0.26,0.26,-0.26,-0.31,0.09,0.25,0.25,0.25
164.88,0.48,0.48,0.27,0.27,-0.27,-0.31,0.09,0.21,0.21,0.21
166.53,0.45,0.44,0.28,0.27,-0.27,-0.32,0.10,0.18,0.17,0.17
168.19,0.41,0.41,0.28,0.28,-0.28,-0.32,0.10,0.13,0.13,0.13
169.87,0.38,0.38,0.28,0.28,-0.28,-0.32,0.11,0.09,0.09,0.09
171.57,0.35,0.34,0.29,0.29,-0.29,-0.33,0.11,0.06,0.06,0.06
173.29,0.31,0.31,0.28,0.29,-0.29,-0.33,0.11,0.02,0.02,0.02
175.02,0.28,0.28,0.29,0.29,-0.29,-0.32,0.12,-0.01,-0.01,-0.01
176.77,0.25,0.25,0.29,0.29,-0.29,-0.32,0.12,-0.04,-0.04,-0.05
178.54,0.22,0.22,0.30,0.29,-0.29,-0.32,0.13,-0.07,-0.08,-0.08
180.32,0.18,0.18,0.29,0.29,-0.29,-0.31,0.13,-0.11,-0.11,-0.11
182.13,0.15,0.14,0.29,0.29,-0.29,-0.31,0.14,-0.14,-0.14,-0.14
183.95,0.11,0.11,0.28,0.28,-0.28,-0.30,0.14,-0.18,-0.17,-0.17
185.79,0.08,0.08,0.28,0.28,-0.28,-0.29,0.15,-0.20,-0.20,-0.20
187.65,0.05,0.04,0.28,0.27,-0.27,-0.28,0.15,-0.22,-0.23,-0.23
189.52,0.01,0.01,0.26,0.27,-0.27,-0.27,0.16,-0.26,-0.25,-0.26
191.42,-0.02,-0.02,0.26,0.26,-0.26,-0.26,0.16,-0.28,-0.28,-0.28
193.33,-0.05,-0.06,0.26,0.25,-0.25,-0.25,0.17,-0.30,-0.31,-0.31
195.27,-0.09,-0.09,0.24,0.24,-0.24,-0.24,0.17,-0.33,-0.33,-0.33
197.22,-0.12,-0.13,0.24,0.23,-0.23,-0.23,0.18,-0.36,-0.36,-0.36
199.19,-0.16,-0.16,0.22,0.22,-0.22,-0.22,0.18,-0.39,-0.38,-0.38
201.18,-0.19,-0.19,0.21,0.21,-0.21,-0.20,0.19,-0.41,-0.40,-0.40
203.19,-0.22,-0.22,0.20,0.20,-0.20,-0.19,0.19,-0.42,-0.43,-0.43
205.23,-0.25,-0.26,0.20,0.19,-0.19,-0.18,0.20,-0.44,-0.45,-0.45
207.28,-0.29,-0.29,0.18,0.18,-0.18,-0.16,0.20,-0.47,-0.47,-0.47
209.35,-0.32,-0.32,0.17,0.17,-0.17,-0.15,0.21,-0.49,-0.49,-0.49
211.44,-0.35,-0.35,0.16,0.15,-0.15,-0.13,0.22,-0.51,-0.51,-0.51
213.56,-0.38,-0.39,0.14,0.14,-0.14,-0.12,0.22,-0.52,-0.53,-0.53
215.69,-0.42,-0.42,0.12,0.13,-0.13,-0.11,0.23,-0.55,-0.55,-0.55
217.85,-0.45,-0.45,0.11,0.11,-0.11,-0.09,0.23,-0.57,-0.56,-0.56
220.03,-0.48,-0.48,0.10,0.10,-0.10,-0.08,0.24,-0.58,-0.58,-0.58
222.23,-0.51,-0.51,0.08,0.08,-0.08,-0.06,0.25,-0.59,-0.59,-0.60
224.45,-0.54,-0.54,0.07,0.07,-0.07,-0.05,0.25,-0.61,-0.61,-0.61
226.70,-0.57,-0.58,0.06,0.05,-0.05,-0.03,0.26,-0.62,-0.63,-0.63
228.96,-0.61,-0.61,0.03,0.03,-0.04,-0.02,0.27,-0.65,-0.64,-0.64
231.25,-0.64,-0.64,0.01,0.01,-0.02,-0.00,0.27,-0.66,-0.66,-0.66
233.57,-0.67,-0.67,-0.00,0.00,-0.01,0.01,0.28,-0.68,-0.68,-0.67
235.90,-0.70,-0.70,-0.01,-0.01,0.01,0.03,0.29,-0.69,-0.69,-0.69
238.26,-0.72,-0.73,-0.01,-0.02,0.02,0.04,0.29,-0.70,-0.70,-0.71
240.64,-0.75,-0.75,-0.03,-0.03,0.04,0.06,0.30,-0.72,-0.72,-0.72
243.05,-0.78,-0.78,-0.05,-0.05,0.05,0.07,0.31,-0.73,-0.73,-0.73
245.48,-0.81,-0.81,-0.07,-0.06,0.06,0.09,0.32,-0.75,-0.74,-0.74
247.93,-0.83,-0.84,-0.08,-0.08,0.08,0.10,0.32,-0.75,-0.76,-0.76
250.41,-0.86,-0.86,-0.10,-0.10,0.10,0.12,0.33,-0.77,-0.77,-0.77
252.92,-0.89,-0.89,-0.12,-0.11,0.11,0.13,0.34,-0.78,-0.78,-0.78
255.45,-0.91,-0.92,-0.13,-0.13,0.13,0.15,0.35,-0.78,-0.79,-0.79
258.00,-0.94,-0.94,-0.15,-0.15,0.15,0.17,0.36,-0.80,-0.80,-0.80
260.58,-0.97,-0.97,-0.17,-0.16,0.16,0.18,0.37,-0.81,-0.81,-0.81
263.19,-0.99,-1.00,-0.18,-0.18,0.18,0.20,0.37,-0.81,-0.82,-0.82
265.82,-1.02,-1.02,-0.20,-0.20,0.20,0.21,0.38,-0.83,-0.83,-0.82
268.48,-1.05,-1.05,-0.22,-0.22,0.22,0.23,0.39,-0.84,-0.83,-0.83
271.16,-1.07,-1.08,-0.23,-0.24,0.23,0.25,0.40,-0.84,-0.84,-0.84
273.87,-1.10,-1.10,-0.25,-0.25,0.25,0.27,0.41,-0.85,-0.85,-0.85
276.61,-1.13,-1.13,-0.28,-0.27,0.27,0.28,0.42,-0.86,-0.86,-0.86
279.38,-1.15,-1.16,-0.29,-0.29,0.29,0.30,0.44,-0.86,-0.86,-0.86
282.17,-1.18,-1.18,-0.31,-0.31,0.31,0.32,0.45,-0.87,-0.87,-0.87
284.99,-1.20,-1.20,-0.33,-0.34,0.34,0.34,0.46,-0.87,-0.87,-0.87
287.84,-1.23,-1.23,-0.37,-0.36,0.36,0.36,0.47,-0.87,-0.87,-0.86
290.72,-1.25,-1.26,-0.38,-0.38,0.38,0.38,0.48,-0.87,-0.87,-0.87
293.63,-1.28,-1.28,-0.40,-0.41,0.41,0.40,0.50,-0.88,-0.87,-0.88
296.57,-1.30,-1.30,-0.43,-0.43,0.43,0.42,0.51,-0.87,-0.87,-0.87
299.53,-1.32,-1.32,-0.45,-0.45,0.45,0.44,0.52,-0.87,-0.87,-0.87
302.53,-1.34,-1.35,-0.47,-0.47,0.47,0.46,0.54,-0.87,-0.87,-0.87
305.55,-1.37,-1.37,-0.50,-0.50,0.50,0.48,0.55,-0.88,-0.87,-0.87
308.61,-1.39,-1.39,-0.52,-0.52,0.52,0.50,0.57,-0.87,-0.87,-0.88
311.69,-1.41,-1.41,-0.54,-0.54,0.54,0.52,0.58,-0.87,-0.87,-0.87
314.81,-1.43,-1.43,-0.56,-0.56,0.56,0.55,0.60,-0.87,-0.87,-0.87
317.96,-1.45,-1.45,-0.58,-0.58,0.58,0.57,0.61,-0.87,-0.87,-0.87
321.14,-1.47,-1.47,-0.60,-0.60,0.60,0.59,0.63,-0.87,-0.87,-0.87
324.35,-1.49,-1.49,-0.62,-0.62,0.62,0.62,0.65,-0.87,-0.87,-0.87
327.59,-1.51,-1.51,-0.65,-0.65,0.65,0.64,0.67,-0.87,-0.87,-0.86
330.87,-1.53,-1.53,-0.67,-0.67,0.67,0.66,0.69,-0.86,-0.86,-0.87
334.18,-1.55,-1.55,-0.69,-0.69,0.69,0.69,0.71,-0.86,-0.86,-0.86
337.52,-1.57,-1.57,-0.71,-0.71,0.71,0.71,0.73,-0.86,-0.86,-0.86
340.90,-1.59,-1.59,-0.74,-0.73,0.73,0.73,0.75,-0.86,-0.86,-0.86
344.30,-1.60,-1.61,-0.75,-0.75,0.76,0.76,0.77,-0.85,-0.85,-0.85
347.75,-1.62,-1.62,-0.78,-0.78,0.78,0.78,0.79,-0.84,-0.85,-0.84
351.23,-1.64,-1.64,-0.80,-0.80,0.80,0.80,0.81,-0.84,-0.84,-0.85
354.74,-1.66,-1.66,-0.83,-0.82,0.82,0.82,0.84,-0.84,-0.84,-0.83
358.28,-1.67,-1.68,-0.84,-0.85,0.84,0.84,0.86,-0.83,-0.83,-0.83
361.87,-1.69,-1.69,-0.87,-0.87,0.87,0.86,0.89,-0.83,-0.83,-0.83
365.49,-1.71,-1.71,-0.89,-0.89,0.89,0.88,0.91,-0.82,-0.82,-0.82
369.14,-1.72,-1.73,-0.90,-0.91,0.91,0.90,0.94,-0.81,-0.82,-0.82
372.83,-1.74,-1.74,-0.94,-0.93,0.93,0.92,0.96,-0.81,-0.81,-0.80
376.56,-1.76,-1.76,-0.96,-0.95,0.95,0.94,0.99,-0.81,-0.81,-0.81
380.33,-1.77,-1.78,-0.97,-0.97,0.97,0.95,1.02,-0.80,-0.80,-0.80
384.13,-1.79,-1.79,-0.99,-0.99,0.99,0.97,1.05,-0.80,-0.79,-0.80
387.97,-1.80,-1.80,-1.01,-1.01,1.02,0.98,1.08,-0.79,-0.79,-0.79
391.85,-1.81,-1.82,-1.04,-1.03,1.04,1.00,1.10,-0.78,-0.78,-0.78
395.77,-1.83,-1.83,-1.05,-1.06,1.05,1.01,1.13,-0.78,-0.78,-0.78
399.73,-1.84,-1.85,-1.07,-1.08,1.07,1.03,1.16,-0.77,-0.77,-0.77
403.72,-1.86,-1.86,-1.10,-1.09,1.09,1.04,1.19,-0.77,-0.77,-0.76
407.76,-1.87,-1.87,-1.11,-1.11,1.11,1.05,1.22,-0.76,-0.76,-0.76
411.84,-1.88,-1.88,-1.13,-1.13,1.13,1.07,1.25,-0.75,-0.75,-0.75
415.96,-1.89,-1.89,-1.15,-1.14,1.15,1.08,1.28,-0.75,-0.75,-0.75
420.12,-1.90,-1.91,-1.15,-1.16,1.16,1.10,1.31,-0.74,-0.74,-0.75
424.32,-1.92,-1.92,-1.18,-1.18,1.18,1.11,1.34,-0.74,-0.74,-0.74
428.56,-1.93,-1.93,-1.20,-1.20,1.20,1.13,1.37,-0.74,-0.74,-0.73
432.85,-1.94,-1.94,-1.22,-1.22,1.21,1.14,1.40,-0.73,-0.73,-0.72
437.18,-1.95,-1.95,-1.23,-1.23,1.23,1.16,1.43,-0.72,-0.72,-0.72
441.55,-1.95,-1.96,-1.24,-1.24,1.25,1.18,1.46,-0.70,-0.71,-0.72
445.96,-1.96,-1.96,-1.26,-1.26,1.26,1.19,1.49,-0.70,-0.70,-0.71
450.42,-1.97,-1.97,-1.28,-1.28,1.28,1.21,1.51,-0.69,-0.69,-0.69
454.93,-1.98,-1.98,-1.30,-1.30,1.30,1.23,1.53,-0.69,-0.69,-0.68
459.48,-1.99,-1.99,-1.32,-1.32,1.31,1.25,1.56,-0.68,-0.68,-0.67
464.07,-2.00,-2.00,-1.33,-1.33,1.33,1.27,1.58,-0.67,-0.67,-0.67
468.71,-2.00,-2.01,-1.34,-1.34,1.35,1.29,1.60,-0.66,-0.66,-0.66
473.40,-2.01,-2.01,-1.36,-1.36,1.36,1.31,1.62,-0.65,-0.65,-0.65
478.13,-2.02,-2.02,-1.38,-1.37,1.37,1.34,1.63,-0.65,-0.64,-0.64
482.91,-2.02,-2.03,-1.39,-1.39,1.39,1.36,1.65,-0.63,-0.64,-0.64
487.74,-2.03,-2.03,-1.41,-1.40,1.40,1.38,1.66,-0.63,-0.63,-0.63
492.62,-2.03,-2.03,-1.41,-1.41,1.42,1.41,1.67,-0.62,-0.62,-0.62
497.55,-2.03,-2.04,-1.42,-1.43,1.43,1.43,1.67,-0.60,-0.60,-0.61
502.52,-2.04,-2.04,-1.44,-1.44,1.45,1.46,1.68,-0.60,-0.59,-0.60
507.55,-2.04,-2.05,-1.46,-1.46,1.46,1.48,1.68,-0.58,-0.58,-0.58
512.62,-2.05,-2.05,-1.48,-1.48,1.47,1.51,1.68,-0.58,-0.58,-0.57
517.75,-2.05,-2.05,-1.49,-1.49,1.49,1.53,1.68,-0.57,-0.56,-0.56
522.93,-2.05,-2.05,-1.50,-1.50,1.50,1.56,1.68,-0.55,-0.55,-0.55
528.16,-2.05,-2.06,-1.51,-1.51,1.51,1.58,1.67,-0.54,-0.54,-0.54
