frequency,raw,smoothed,error,error_smoothed,equalization,parametric_eq,fixed_band_eq,equalized_raw,equalized_smoothed,target
20.00,4.09,4.09,1.27,1.27,-1.28,-2.17,-1.07,2.81,2.81,2.82
20.20,4.14,4.14,1.32,1.32,-1.32,-2.17,-1.10,2.82,2.82,2.82
20.40,4.19,4.19,1.37,1.37,-1.37,-2.17,-1.14,2.82,2.82,2.82
20.61,4.22,4.23,1.40,1.41,-1.41,-2.17,-1.17,2.81,2.82,2.82
20.81,4.27,4.27,1.45,1.46,-1.45,-2.17,-1.21,2.82,2.82,2.82
21.02,4.32,4.31,1.51,1.50,-1.49,-2.17,-1.24,2.83,2.82,2.82
21.23,4.35,4.36,1.53,1.54,-1.53,-2.18,-1.28,2.82,2.82,2.82
21.44,4.39,4.39,1.57,1.57,-1.57,-2.18,-1.32,2.82,2.82,2.82
21.66,4.43,4.43,1.61,1.60,-1.61,-2.18,-1.36,2.82,2.82,2.82
21.87,4.46,4.46,1.64,1.64,-1.64,-2.18,-1.40,2.82,2.82,2.82
22.09,4.50,4.50,1.68,1.68,-1.68,-2.18,-1.44,2.82,2.82,2.82
22.31,4.53,4.53,1.71,1.71,-1.71,-2.18,-1.48,2.82,2.82,2.82
22.54,4.57,4.57,1.75,1.75,-1.75,-2.18,-1.52,2.82,2.82,2.82
22.76,4.60,4.60,1.78,1.78,-1.78,-2.19,-1.57,2.82,2.82,2.82
22.99,4.64,4.64,1.82,1.82,-1.82,-2.19,-1.61,2.82,2.82,2.82
23.22,4.67,4.67,1.85,1.85,-1.85,-2.19,-1.66,2.82,2.82,2.82
23.45,4.70,4.70,1.88,1.88,-1.88,-2.19,-1.71,2.82,2.82,2.82
23.69,4.73,4.73,1.91,1.91,-1.91,-2.19,-1.76,2.82,2.82,2.82
23.92,4.76,4.76,1.94,1.94,-1.95,-2.20,-1.81,2.82,2.82,2.82
24.16,4.79,4.79,1.98,1.98,-1.98,-2.20,-1.86,2.81,2.81,2.82
24.40,4.82,4.82,2.01,2.01,-2.01,-2.20,-1.91,2.81,2.81,2.81
24.65,4.85,4.85,2.04,2.04,-2.04,-2.20,-1.96,2.81,2.81,2.81
24.89,4.88,4.88,2.07,2.07,-2.07,-2.20,-2.02,2.81,2.81,2.81
25.14,4.91,4.91,2.10,2.10,-2.10,-2.21,-2.07,2.81,2.81,2.81
25.39,4.94,4.94,2.13,2.13,-2.13,-2.21,-2.12,2.81,2.81,2.81
25.65,4.97,4.97,2.16,2.16,-2.15,-2.21,-2.18,2.82,2.81,2.81
25.91,4.99,4.99,2.18,2.18,-2.18,-2.21,-2.23,2.81,2.81,2.81
26.16,5.01,5.01,2.20,2.20,-2.20,-2.22,-2.28,2.81,2.81,2.81
26.43,5.03,5.03,2.22,2.23,-2.23,-2.22,-2.33,2.80,2.80,2.81
26.69,5.05,5.05,2.25,2.25,-2.25,-2.22,-2.39,2.80,2.80,2.80
26.96,5.07,5.07,2.27,2.27,-2.27,-2.23,-2.44,2.80,2.80,2.80
27.23,5.09,5.09,2.29,2.29,-2.29,-2.23,-2.49,2.80,2.80,2.80
27.50,5.11,5.11,2.31,2.31,-2.31,-2.23,-2.54,2.80,2.80,2.80
27.77,5.12,5.12,2.32,2.33,-2.33,-2.24,-2.58,2.79,2.80,2.80
28.05,5.14,5.14,2.34,2.34,-2.34,-2.24,-2.63,2.80,2.80,2.80
28.33,5.15,5.15,2.36,2.36,-2.36,-2.24,-2.67,2.79,2.80,2.80
28.62,5.17,5.16,2.38,2.37,-2.37,-2.25,-2.71,2.80,2.80,2.79
28.90,5.17,5.17,2.38,2.38,-2.38,-2.25,-2.75,2.79,2.79,2.79
29.19,5.17,5.18,2.38,2.39,-2.38,-2.26,-2.78,2.79,2.79,2.79
29.48,5.18,5.18,2.39,2.39,-2.39,-2.26,-2.82,2.79,2.79,2.79
29.78,5.18,5.18,2.39,2.39,-2.40,-2.27,-2.84,2.78,2.78,2.79
30.08,5.18,5.18,2.40,2.40,-2.40,-2.27,-2.87,2.78,2.78,2.78
30.38,5.18,5.18,2.40,2.40,-2.41,-2.28,-2.89,2.77,2.78,2.78
30.68,5.19,5.19,2.41,2.41,-2.41,-2.28,-2.90,2.78,2.78,2.78
30.99,5.20,5.20,2.42,2.42,-2.42,-2.29,-2.92,2.78,2.78,2.78
31.30,5.21,5.21,2.43,2.42,-2.42,-2.29,-2.93,2.79,2.79,2.79
31.61,5.21,5.21,2.43,2.43,-2.42,-2.30,-2.93,2.79,2.79,2.78
31.93,5.21,5.21,2.43,2.43,-2.43,-2.30,-2.93,2.78,2.78,2.78
32.24,5.21,5.21,2.43,2.43,-2.43,-2.31,-2.93,2.78,2.78,2.78
32.57,5.20,5.20,2.43,2.43,-2.43,-2.32,-2.92,2.77,2.77,2.77
32.89,5.20,5.20,2.43,2.43,-2.43,-2.32,-2.91,2.77,2.77,2.77
33.22,5.20,5.20,2.44,2.43,-2.43,-2.33,-2.90,2.77,2.76,2.76
33.55,5.19,5.19,2.43,2.44,-2.44,-2.34,-2.88,2.76,2.76,2.76
33.89,5.19,5.19,2.44,2.44,-2.44,-2.34,-2.86,2.75,2.75,2.75
34.23,5.19,5.19,2.44,2.44,-2.44,-2.35,-2.83,2.75,2.75,2.75
34.57,5.18,5.18,2.43,2.44,-2.44,-2.36,-2.81,2.74,2.75,2.75
34.92,5.18,5.18,2.44,2.44,-2.44,-2.36,-2.78,2.74,2.74,2.74
35.27,5.18,5.18,2.44,2.44,-2.44,-2.37,-2.75,2.74,2.74,2.74
35.62,5.17,5.17,2.44,2.44,-2.44,-2.38,-2.72,2.73,2.74,2.73
35.97,5.17,5.17,2.44,2.44,-2.44,-2.38,-2.69,2.73,2.73,2.73
36.33,5.16,5.16,2.43,2.44,-2.44,-2.39,-2.65,2.72,2.72,2.73
36.70,5.16,5.16,2.44,2.44,-2.44,-2.40,-2.62,2.72,2.72,2.72
37.06,5.16,5.16,2.44,2.44,-2.44,-2.41,-2.58,2.72,2.72,2.72
37.43,5.16,5.16,2.45,2.45,-2.45,-2.41,-2.55,2.71,2.71,2.71
37.81,5.16,5.16,2.45,2.45,-2.45,-2.42,-2.51,2.71,2.71,2.71
38.19,5.16,5.16,2.46,2.46,-2.46,-2.42,-2.47,2.70,2.71,2.70
38.57,5.16,5.16,2.46,2.46,-2.46,-2.43,-2.44,2.70,2.70,2.70
38.95,5.16,5.16,2.47,2.46,-2.46,-2.44,-2.40,2.70,2.69,2.69
39.34,5.15,5.15,2.46,2.47,-2.47,-2.44,-2.37,2.68,2.69,2.69
39.74,5.15,5.15,2.47,2.47,-2.47,-2.44,-2.34,2.68,2.68,2.68
40.14,5.14,5.14,2.46,2.47,-2.47,-2.45,-2.30,2.67,2.68,2.68
40.54,5.14,5.14,2.47,2.47,-2.46,-2.45,-2.27,2.68,2.67,2.67
40.94,5.13,5.13,2.47,2.46,-2.46,-2.45,-2.24,2.67,2.67,2.66
41.35,5.11,5.11,2.45,2.46,-2.46,-2.45,-2.22,2.65,2.66,2.66
41.76,5.10,5.10,2.45,2.45,-2.45,-2.45,-2.19,2.65,2.65,2.65
42.18,5.09,5.09,2.45,2.45,-2.45,-2.45,-2.16,2.64,2.64,2.64
42.60,5.08,5.08,2.44,2.44,-2.45,-2.45,-2.14,2.63,2.63,2.64
43.03,5.07,5.07,2.44,2.44,-2.44,-2.45,-2.12,2.63,2.63,2.63
43.46,5.06,5.06,2.44,2.44,-2.44,-2.44,-2.10,2.62,2.62,2.62
43.90,5.05,5.05,2.44,2.44,-2.44,-2.43,-2.08,2.61,2.61,2.61
44.33,5.04,5.04,2.44,2.43,-2.43,-2.43,-2.06,2.61,2.60,2.60
44.78,5.02,5.03,2.43,2.43,-2.43,-2.42,-2.05,2.59,2.59,2.59
45.23,5.01,5.01,2.43,2.43,-2.43,-2.41,-2.03,2.58,2.59,2.59
45.68,5.00,5.00,2.42,2.42,-2.42,-2.40,-2.02,2.58,2.58,2.58
46.13,4.98,4.98,2.41,2.41,-2.41,-2.38,-2.01,2.57,2.57,2.57
46.60,4.96,4.96,2.40,2.41,-2.41,-2.37,-2.00,2.56,2.56,2.56
47.06,4.94,4.94,2.39,2.39,-2.40,-2.36,-1.99,2.54,2.55,2.55
47.53,4.92,4.92,2.39,2.38,-2.38,-2.34,-1.98,2.54,2.53,2.53
48.01,4.89,4.89,2.37,2.37,-2.37,-2.32,-1.98,2.52,2.52,2.52
48.49,4.86,4.86,2.35,2.36,-2.35,-2.30,-1.98,2.51,2.51,2.51
48.97,4.83,4.83,2.34,2.34,-2.33,-2.28,-1.97,2.50,2.49,2.49
49.46,4.79,4.79,2.31,2.31,-2.31,-2.26,-1.97,2.48,2.48,2.48
49.96,4.75,4.75,2.29,2.29,-2.29,-2.24,-1.97,2.46,2.46,2.46
50.46,4.71,4.71,2.26,2.26,-2.26,-2.22,-1.97,2.45,2.45,2.45
50.96,4.67,4.67,2.23,2.23,-2.23,-2.20,-1.97,2.44,2.44,2.44
51.47,4.62,4.62,2.20,2.20,-2.20,-2.17,-1.98,2.43,2.43,2.42
51.99,4.57,4.57,2.16,2.16,-2.16,-2.15,-1.98,2.41,2.41,2.41
52.51,4.51,4.51,2.12,2.12,-2.12,-2.12,-1.98,2.39,2.39,2.39
53.03,4.46,4.46,2.08,2.08,-2.08,-2.10,-1.99,2.38,2.38,2.38
53.56,4.40,4.40,2.04,2.04,-2.04,-2.07,-1.99,2.36,2.36,2.36
54.10,4.35,4.35,2.01,2.00,-2.00,-2.05,-1.99,2.35,2.34,2.34
54.64,4.29,4.29,1.96,1.96,-1.96,-2.02,-2.00,2.33,2.33,2.33
55.18,4.23,4.24,1.92,1.93,-1.92,-1.99,-2.00,2.31,2.31,2.31
55.74,4.18,4.18,1.89,1.89,-1.89,-1.97,-2.00,2.30,2.29,2.29
56.29,4.12,4.12,1.85,1.85,-1.85,-1.94,-2.00,2.27,2.27,2.27
56.86,4.06,4.06,1.81,1.81,-1.82,-1.91,-2.00,2.25,2.25,2.25
57.42,4.01,4.01,1.78,1.78,-1.78,-1.88,-2.00,2.23,2.23,2.23
58.00,3.96,3.96,1.75,1.75,-1.75,-1.85,-2.00,2.21,2.21,2.21
58.58,3.91,3.91,1.72,1.72,-1.72,-1.82,-1.99,2.19,2.19,2.19
59.16,3.86,3.86,1.69,1.70,-1.70,-1.79,-1.99,2.16,2.17,2.17
59.76,3.82,3.82,1.68,1.68,-1.67,-1.76,-1.98,2.15,2.15,2.14
60.35,3.77,3.77,1.65,1.65,-1.64,-1.73,-1.97,2.13,2.13,2.12
60.96,3.72,3.72,1.62,1.62,-1.62,-1.70,-1.95,2.10,2.10,2.10
61.57,3.67,3.67,1.59,1.59,-1.60,-1.67,-1.94,2.07,2.07,2.08
62.18,3.62,3.62,1.57,1.57,-1.58,-1.64,-1.92,2.04,2.05,2.05
62.80,3.58,3.58,1.55,1.55,-1.56,-1.61,-1.90,2.03,2.02,2.03
63.43,3.53,3.53,1.53,1.53,-1.54,-1.58,-1.88,1.99,2.00,2.00
64.07,3.49,3.49,1.52,1.52,-1.52,-1.55,-1.86,1.97,1.97,1.97
64.71,3.45,3.45,1.51,1.50,-1.50,-1.52,-1.83,1.95,1.95,1.94
65.35,3.40,3.40,1.48,1.49,-1.49,-1.49,-1.80,1.92,1.92,1.92
66.01,3.36,3.36,1.47,1.47,-1.47,-1.46,-1.77,1.89,1.89,1.89
66.67,3.31,3.31,1.45,1.45,-1.45,-1.43,-1.73,1.86,1.86,1.86
67.33,3.26,3.26,1.43,1.43,-1.43,-1.40,-1.70,1.83,1.83,1.83
68.01,3.21,3.21,1.42,1.41,-1.41,-1.37,-1.66,1.80,1.80,1.80
68.69,3.15,3.16,1.38,1.39,-1.39,-1.34,-1.62,1.76,1.77,1.77
69.37,3.10,3.10,1.36,1.36,-1.36,-1.31,-1.58,1.74,1.74,1.74
70.07,3.04,3.04,1.34,1.33,-1.33,-1.28,-1.53,1.71,1.70,1.70
70.77,2.97,2.98,1.30,1.31,-1.30,-1.25,-1.49,1.67,1.67,1.67
71.48,2.91,2.91,1.27,1.27,-1.27,-1.22,-1.44,1.64,1.64,1.64
72.19,2.84,2.84,1.24,1.23,-1.23,-1.19,-1.40,1.61,1.60,1.60
72.91,2.76,2.77,1.19,1.20,-1.19,-1.16,-1.35,1.57,1.57,1.57
73.64,2.69,2.69,1.15,1.15,-1.15,-1.14,-1.30,1.54,1.53,1.54
74.38,2.61,2.61,1.11,1.11,-1.11,-1.11,-1.25,1.50,1.50,1.50
75.12,2.53,2.53,1.07,1.07,-1.07,-1.08,-1.20,1.46,1.46,1.46
75.87,2.45,2.45,1.03,1.03,-1.03,-1.06,-1.15,1.42,1.42,1.42
76.63,2.37,2.37,0.99,0.99,-0.99,-1.03,-1.10,1.38,1.38,1.38
77.40,2.29,2.29,0.94,0.94,-0.94,-1.01,-1.05,1.35,1.35,1.35
78.17,2.21,2.21,0.90,0.90,-0.90,-0.98,-1.00,1.31,1.31,1.31
78.95,2.13,2.13,0.86,0.87,-0.86,-0.96,-0.94,1.27,1.27,1.27
79.74,2.06,2.06,0.83,0.83,-0.83,-0.94,-0.89,1.23,1.23,1.23
80.54,1.98,1.98,0.79,0.79,-0.79,-0.91,-0.84,1.19,1.19,1.19
81.35,1.91,1.91,0.76,0.76,-0.76,-0.89,-0.79,1.15,1.15,1.15
82.16,1.84,1.84,0.73,0.73,-0.73,-0.87,-0.74,1.11,1.11,1.11
82.98,1.78,1.78,0.71,0.71,-0.71,-0.84,-0.69,1.07,1.07,1.07
83.81,1.71,1.71,0.69,0.69,-0.69,-0.82,-0.64,1.02,1.02,1.02
84.65,1.65,1.65,0.67,0.67,-0.67,-0.80,-0.59,0.98,0.98,0.98
85.50,1.59,1.59,0.65,0.65,-0.66,-0.78,-0.54,0.94,0.94,0.94
86.35,1.54,1.54,0.64,0.64,-0.64,-0.75,-0.49,0.90,0.90,0.90
87.22,1.48,1.48,0.63,0.63,-0.63,-0.73,-0.44,0.85,0.85,0.85
88.09,1.42,1.42,0.61,0.61,-0.61,-0.70,-0.39,0.81,0.81,0.81
88.97,1.36,1.36,0.60,0.60,-0.59,-0.68,-0.34,0.77,0.76,0.77
89.86,1.29,1.30,0.58,0.58,-0.57,-0.65,-0.29,0.72,0.72,0.72
90.76,1.23,1.23,0.56,0.55,-0.55,-0.63,-0.24,0.68,0.68,0.67
91.66,1.16,1.16,0.53,0.53,-0.53,-0.60,-0.20,0.63,0.63,0.63
92.58,1.08,1.08,0.49,0.50,-0.50,-0.57,-0.15,0.58,0.58,0.59
93.51,1.00,1.00,0.46,0.46,-0.47,-0.55,-0.10,0.54,0.54,0.54
94.44,0.92,0.92,0.43,0.43,-0.43,-0.52,-0.05,0.49,0.49,0.49
95.39,0.84,0.84,0.40,0.39,-0.39,-0.49,-0.01,0.45,0.45,0.45
96.34,0.75,0.75,0.36,0.35,-0.35,-0.45,0.04,0.40,0.40,0.40
97.30,0.65,0.65,0.30,0.30,-0.30,-0.42,0.09,0.35,0.35,0.35
98.28,0.56,0.56,0.26,0.25,-0.25,-0.39,0.13,0.31,0.30,0.31
99.26,0.46,0.46,0.20,0.21,-0.21,-0.35,0.18,0.25,0.25,0.26
100.25,0.37,0.37,0.16,0.16,-0.16,-0.32,0.22,0.21,0.21,0.21
101.25,0.27,0.27,0.11,0.11,-0.11,-0.28,0.27,0.16,0.16,0.16
102.27,0.18,0.18,0.07,0.07,-0.07,-0.24,0.31,0.11,0.11,0.11
103.29,0.09,0.09,0.02,0.03,-0.03,-0.20,0.35,0.06,0.06,0.07
104.32,0.01,0.01,-0.01,-0.01,0.01,-0.15,0.40,0.02,0.02,0.02
105.37,-0.07,-0.07,-0.04,-0.04,0.04,-0.11,0.44,-0.03,-0.03,-0.03
106.42,-0.15,-0.15,-0.08,-0.08,0.07,-0.06,0.48,-0.08,-0.08,-0.07
107.48,-0.23,-0.23,-0.11,-0.11,0.10,-0.01,0.52,-0.13,-0.12,-0.12
108.56,-0.30,-0.30,-0.13,-0.13,0.13,0.04,0.56,-0.17,-0.17,-0.17
109.64,-0.37,-0.37,-0.16,-0.16,0.16,0.09,0.60,-0.21,-0.21,-0.21
110.74,-0.45,-0.45,-0.19,-0.18,0.19,0.15,0.64,-0.26,-0.26,-0.26
111.85,-0.52,-0.52,-0.21,-0.22,0.22,0.21,0.68,-0.30,-0.31,-0.31
112.97,-0.61,-0.60,-0.25,-0.25,0.25,0.27,0.71,-0.36,-0.35,-0.35
114.10,-0.69,-0.69,-0.29,-0.29,0.29,0.33,0.74,-0.40,-0.40,-0.40
115.24,-0.78,-0.78,-0.33,-0.34,0.34,0.40,0.78,-0.44,-0.44,-0.45
116.39,-0.88,-0.88,-0.38,-0.39,0.39,0.47,0.81,-0.49,-0.49,-0.50
117.55,-0.99,-0.99,-0.45,-0.45,0.45,0.54,0.84,-0.54,-0.54,-0.54
118.73,-1.10,-1.10,-0.51,-0.51,0.51,0.61,0.87,-0.59,-0.58,-0.59
119.92,-1.21,-1.21,-0.58,-0.58,0.58,0.69,0.89,-0.63,-0.63,-0.63
121.12,-1.33,-1.33,-0.65,-0.65,0.65,0.77,0.92,-0.68,-0.68,-0.67
122.33,-1.44,-1.44,-0.72,-0.72,0.72,0.86,0.94,-0.72,-0.72,-0.72
123.55,-1.55,-1.55,-0.79,-0.79,0.79,0.94,0.96,-0.76,-0.76,-0.76
124.79,-1.66,-1.66,-0.85,-0.86,0.85,1.03,0.98,-0.81,-0.81,-0.81
126.03,-1.77,-1.77,-0.92,-0.92,0.91,1.12,0.99,-0.86,-0.85,-0.85
127.29,-1.87,-1.87,-0.98,-0.98,0.97,1.21,1.01,-0.90,-0.90,-0.89
128.57,-1.97,-1.97,-1.04,-1.03,1.03,1.31,1.02,-0.94,-0.94,-0.93
129.85,-2.06,-2.06,-1.09,-1.08,1.08,1.41,1.03,-0.98,-0.98,-0.97
131.15,-2.15,-2.15,-1.13,-1.14,1.14,1.50,1.04,-1.01,-1.01,-1.01
132.46,-2.25,-2.25,-1.19,-1.19,1.20,1.60,1.05,-1.05,-1.05,-1.06
133.79,-2.35,-2.35,-1.25,-1.25,1.26,1.69,1.06,-1.09,-1.09,-1.10
135.12,-2.45,-2.45,-1.32,-1.32,1.32,1.78,1.06,-1.13,-1.13,-1.13
136.48,-2.56,-2.56,-1.39,-1.39,1.40,1.88,1.07,-1.16,-1.16,-1.17
137.84,-2.68,-2.68,-1.47,-1.47,1.47,1.96,1.07,-1.20,-1.20,-1.21
139.22,-2.80,-2.80,-1.55,-1.55,1.56,2.04,1.07,-1.24,-1.24,-1.25
140.61,-2.93,-2.93,-1.64,-1.64,1.65,2.11,1.08,-1.28,-1.28,-1.29
142.02,-3.06,-3.06,-1.73,-1.73,1.74,2.17,1.08,-1.32,-1.32,-1.32
143.44,-3.19,-3.19,-1.83,-1.83,1.82,2.22,1.08,-1.36,-1.36,-1.36
144.87,-3.31,-3.31,-1.91,-1.92,1.91,2.27,1.08,-1.40,-1.40,-1.40
146.32,-3.43,-3.43,-2.00,-2.00,1.99,2.29,1.07,-1.44,-1.44,-1.43
147.78,-3.53,-3.53,-2.07,-2.07,2.06,2.31,1.07,-1.47,-1.47,-1.46
149.26,-3.63,-3.63,-2.13,-2.13,2.12,2.32,1.07,-1.51,-1.50,-1.50
150.75,-3.71,-3.71,-2.18,-2.18,2.18,2.32,1.07,-1.53,-1.53,-1.53
152.26,-3.78,-3.78,-2.22,-2.22,2.22,2.29,1.07,-1.56,-1.56,-1.56
153.78,-3.84,-3.84,-2.25,-2.25,2.26,2.27,1.07,-1.58,-1.59,-1.59
155.32,-3.90,-3.90,-2.28,-2.28,2.29,2.23,1.07,-1.61,-1.61,-1.62
156.88,-3.95,-3.95,-2.30,-2.30,2.31,2.19,1.07,-1.64,-1.64,-1.65
158.44,-3.99,-3.99,-2.31,-2.32,2.32,2.14,1.07,-1.67,-1.67,-1.68
160.03,-4.03,-4.03,-2.32,-2.32,2.33,2.09,1.07,-1.70,-1.70,-1.71
161.63,-4.06,-4.06,-2.33,-2.33,2.33,2.03,1.07,-1.73,-1.73,-1.73
163.24,-4.08,-4.08,-2.32,-2.32,2.31,1.97,1.07,-1.76,-1.76,-1.76
164.88,-4.08,-4.08,-2.29,-2.29,2.29,1.91,1.07,-1.79,-1.79,-1.79
166.53,-4.06,-4.06,-2.25,-2.25,2.24,1.85,1.07,-1.82,-1.82,-1.81
168.19,-4.03,-4.02,-2.19,-2.19,2.17,1.78,1.08,-1.86,-1.85,-1.84
169.87,-3.96,-3.96,-2.10,-2.10,2.09,1.72,1.08,-1.87,-1.88,-1.86
171.57,-3.88,-3.88,-2.00,-1.99,1.98,1.66,1.09,-1.90,-1.89,-1.88
173.29,-3.77,-3.77,-1.87,-1.87,1.86,1.60,1.09,-1.91,-1.91,-1.90
175.02,-3.65,-3.65,-1.73,-1.73,1.73,1.55,1.10,-1.92,-1.93,-1.92
176.77,-3.53,-3.53,-1.59,-1.58,1.58,1.49,1.11,-1.94,-1.94,-1.94
178.54,-3.40,-3.40,-1.43,-1.43,1.44,1.45,1.12,-1.96,-1.96,-1.97
180.32,-3.27,-3.27,-1.28,-1.28,1.29,1.40,1.12,-1.98,-1.98,-1.99
182.13,-3.14,-3.14,-1.13,-1.13,1.14,1.35,1.14,-2.00,-2.00,-2.01
183.95,-3.02,-3.02,-0.99,-0.99,1.00,1.31,1.15,-2.02,-2.02,-2.03
185.79,-2.90,-2.90,-0.86,-0.86,0.86,1.27,1.16,-2.04,-2.04,-2.04
187.65,-2.79,-2.79,-0.73,-0.74,0.74,1.24,1.17,-2.05,-2.06,-2.06
189.52,-2.70,-2.70,-0.63,-0.63,0.63,1.21,1.19,-2.07,-2.07,-2.07
191.42,-2.62,-2.61,-0.54,-0.53,0.53,1.17,1.20,-2.09,-2.08,-2.08
193.33,-2.54,-2.55,-0.44,-0.45,0.45,1.15,1.22,-2.09,-2.10,-2.10
195.27,-2.50,-2.50,-0.38,-0.38,0.39,1.12,1.23,-2.11,-2.10,-2.12
197.22,-2.47,-2.47,-0.34,-0.34,0.35,1.10,1.25,-2.12,-2.12,-2.13
199.19,-2.46,-2.46,-0.32,-0.32,0.33,1.08,1.27,-2.13,-2.13,-2.14
201.18,-2.47,-2.47,-0.32,-0.32,0.33,1.06,1.28,-2.14,-2.14,-2.15
203.19,-2.50,-2.50,-0.34,-0.34,0.34,1.05,1.30,-2.16,-2.16,-2.16
205.23,-2.54,-2.54,-0.37,-0.37,0.36,1.03,1.32,-2.18,-2.18,-2.17
207.28,-2.59,-2.59,-0.41,-0.40,0.40,1.02,1.34,-2.19,-2.19,-2.18
209.35,-2.64,-2.64,-0.45,-0.45,0.44,1.01,1.36,-2.20,-2.20,-2.19
211.44,-2.70,-2.70,-0.49,-0.49,0.48,1.00,1.38,-2.22,-2.21,-2.21
213.56,-2.75,-2.75,-0.53,-0.54,0.53,1.00,1.40,-2.22,-2.22,-2.22
215.69,-2.81,-2.81,-0.59,-0.58,0.58,0.99,1.42,-2.23,-2.23,-2.22
217.85,-2.87,-2.87,-0.64,-0.63,0.63,0.99,1.44,-2.23,-2.23,-2.23
220.03,-2.92,-2.93,-0.68,-0.69,0.69,0.99,1.46,-2.23,-2.23,-2.24
222.23,-2.99,-2.99,-0.75,-0.74,0.75,0.99,1.48,-2.24,-2.24,-2.24
224.45,-3.05,-3.05,-0.80,-0.80,0.81,0.99,1.50,-2.24,-2.24,-2.25
226.70,-3.12,-3.12,-0.86,-0.87,0.87,0.99,1.52,-2.25,-2.25,-2.25
228.96,-3.19,-3.19,-0.94,-0.94,0.93,1.00,1.54,-2.26,-2.26,-2.25
231.25,-3.26,-3.26,-1.01,-1.00,0.99,1.00,1.55,-2.27,-2.26,-2.25
233.57,-3.32,-3.32,-1.06,-1.06,1.05,1.01,1.57,-2.27,-2.27,-2.26
235.90,-3.38,-3.38,-1.11,-1.11,1.11,1.02,1.59,-2.27,-2.27,-2.27
238.26,-3.43,-3.43,-1.16,-1.16,1.16,1.03,1.60,-2.27,-2.27,-2.27
240.64,-3.48,-3.48,-1.21,-1.21,1.21,1.04,1.61,-2.27,-2.26,-2.27
243.05,-3.52,-3.53,-1.25,-1.26,1.26,1.05,1.63,-2.26,-2.26,-2.27
245.48,-3.58,-3.58,-1.31,-1.31,1.31,1.07,1.64,-2.27,-2.26,-2.27
247.93,-3.63,-3.63,-1.36,-1.36,1.36,1.08,1.65,-2.27,-2.27,-2.27
250.41,-3.68,-3.68,-1.41,-1.41,1.41,1.10,1.66,-2.27,-2.27,-2.27
252.92,-3.73,-3.73,-1.46,-1.46,1.45,1.11,1.66,-2.28,-2.28,-2.27
255.45,-3.77,-3.77,-1.50,-1.50,1.50,1.13,1.67,-2.27,-2.28,-2.27
258.00,-3.81,-3.81,-1.54,-1.54,1.54,1.15,1.67,-2.27,-2.27,-2.27
260.58,-3.85,-3.85,-1.58,-1.58,1.58,1.18,1.68,-2.27,-2.27,-2.27
263.19,-3.88,-3.88,-1.61,-1.62,1.62,1.20,1.68,-2.26,-2.26,-2.27
265.82,-3.92,-3.92,-1.65,-1.65,1.66,1.22,1.68,-2.26,-2.26,-2.27
268.48,-3.96,-3.96,-1.70,-1.70,1.70,1.25,1.68,-2.26,-2.26,-2.26
271.16,-3.99,-3.99,-1.73,-1.74,1.74,1.27,1.68,-2.25,-2.26,-2.26
273.87,-4.03,-4.03,-1.78,-1.78,1.77,1.30,1.68,-2.26,-2.25,-2.25
276.61,-4.06,-4.06,-1.82,-1.81,1.81,1.33,1.68,-2.25,-2.25,-2.24
279.38,-4.09,-4.09,-1.85,-1.85,1.84,1.36,1.68,-2.25,-2.25,-2.24
282.17,-4.11,-4.11,-1.87,-1.87,1.87,1.40,1.68,-2.24,-2.24,-2.24
284.99,-4.12,-4.12,-1.89,-1.89,1.89,1.43,1.68,-2.23,-2.23,-2.23
287.84,-4.14,-4.14,-1.91,-1.91,1.91,1.46,1.68,-2.23,-2.23,-2.23
290.72,-4.16,-4.16,-1.93,-1.93,1.93,1.50,1.68,-2.23,-2.22,-2.23
293.63,-4.17,-4.17,-1.95,-1.95,1.95,1.54,1.67,-2.22,-2.22,-2.22
296.57,-4.18,-4.18,-1.96,-1.96,1.96,1.58,1.67,-2.22,-2.22,-2.22
299.53,-4.19,-4.19,-1.98,-1.98,1.98,1.62,1.67,-2.21,-2.21,-2.21
302.53,-4.19,-4.19,-1.99,-1.99,1.99,1.66,1.67,-2.20,-2.20,-2.20
305.55,-4.20,-4.20,-2.01,-2.01,2.00,1.71,1.67,-2.19,-2.19,-2.19
308.61,-4.20,-4.20,-2.02,-2.02,2.02,1.75,1.67,-2.18,-2.18,-2.18
311.69,-4.20,-4.20,-2.03,-2.03,2.03,1.80,1.68,-2.17,-2.17,-2.17
314.81,-4.20,-4.20,-2.03,-2.04,2.04,1.85,1.68,-2.16,-2.16,-2.17
317.96,-4.21,-4.21,-2.05,-2.05,2.05,1.89,1.68,-2.16,-2.16,-2.16
321.14,-4.21,-4.21,-2.06,-2.06,2.06,1.94,1.69,-2.15,-2.15,-2.15
324.35,-4.22,-4.22,-2.08,-2.08,2.08,2.00,1.70,-2.14,-2.14,-2.14
327.59,-4.22,-4.22,-2.09,-2.09,2.09,2.05,1.70,-2.13,-2.13,-2.13
330.87,-4.23,-4.23,-2.11,-2.11,2.11,2.10,1.71,-2.12,-2.12,-2.12
334.18,-4.24,-4.24,-2.13,-2.13,2.13,2.16,1.72,-2.11,-2.11,-2.11
337.52,-4.25,-4.25,-2.15,-2.15,2.15,2.21,1.73,-2.10,-2.10,-2.10
340.90,-4.27,-4.27,-2.18,-2.18,2.18,2.26,1.75,-2.09,-2.09,-2.09
344.30,-4.28,-4.28,-2.20,-2.21,2.20,2.32,1.76,-2.08,-2.08,-2.08
347.75,-4.30,-4.30,-2.23,-2.23,2.23,2.37,1.78,-2.07,-2.07,-2.07
351.23,-4.32,-4.32,-2.26,-2.26,2.26,2.43,1.80,-2.06,-2.06,-2.05
354.74,-4.33,-4.33,-2.29,-2.29,2.29,2.48,1.81,-2.04,-2.04,-2.04
358.28,-4.35,-4.35,-2.32,-2.32,2.32,2.54,1.83,-2.03,-2.03,-2.03
361.87,-4.37,-4.37,-2.35,-2.35,2.35,2.59,1.86,-2.02,-2.02,-2.02
365.49,-4.39,-4.39,-2.38,-2.38,2.38,2.64,1.88,-2.01,-2.01,-2.01
369.14,-4.41,-4.41,-2.42,-2.42,2.41,2.69,1.90,-2.00,-2.00,-1.99
372.83,-4.43,-4.43,-2.45,-2.45,2.45,2.74,1.93,-1.98,-1.98,-1.98
376.56,-4.45,-4.45,-2.48,-2.48,2.48,2.78,1.96,-1.97,-1.97,-1.97
380.33,-4.47,-4.47,-2.52,-2.52,2.52,2.82,1.98,-1.95,-1.95,-1.95
384.13,-4.50,-4.50,-2.56,-2.56,2.55,2.86,2.01,-1.95,-1.94,-1.94
387.97,-4.52,-4.52,-2.59,-2.60,2.59,2.90,2.04,-1.93,-1.93,-1.93
391.85,-4.55,-4.55,-2.64,-2.64,2.64,2.93,2.07,-1.91,-1.91,-1.91
395.77,-4.58,-4.58,-2.68,-2.68,2.68,2.96,2.11,-1.90,-1.89,-1.90
399.73,-4.61,-4.61,-2.72,-2.73,2.73,2.98,2.14,-1.88,-1.88,-1.89
403.72,-4.65,-4.65,-2.78,-2.78,2.79,3.00,2.17,-1.86,-1.86,-1.87
407.76,-4.69,-4.69,-2.84,-2.84,2.84,3.01,2.21,-1.85,-1.85,-1.85
411.84,-4.73,-4.73,-2.90,-2.90,2.90,3.02,2.24,-1.83,-1.83,-1.83
415.96,-4.78,-4.78,-2.96,-2.96,2.96,3.02,2.28,-1.82,-1.81,-1.82
420.12,-4.82,-4.82,-3.02,-3.02,3.02,3.02,2.31,-1.80,-1.80,-1.80
424.32,-4.86,-4.86,-3.08,-3.08,3.08,3.01,2.35,-1.78,-1.78,-1.78
428.56,-4.90,-4.89,-3.14,-3.13,3.13,3.00,2.38,-1.76,-1.76,-1.76
432.85,-4.92,-4.92,-3.17,-3.18,3.18,2.98,2.41,-1.74,-1.74,-1.75
437.18,-4.94,-4.94,-3.21,-3.22,3.22,2.96,2.44,-1.72,-1.72,-1.73
441.55,-4.95,-4.95,-3.25,-3.24,3.24,2.93,2.47,-1.71,-1.71,-1.70
445.96,-4.94,-4.94,-3.26,-3.26,3.25,2.90,2.50,-1.69,-1.69,-1.68
450.42,-4.92,-4.92,-3.25,-3.25,3.24,2.86,2.53,-1.68,-1.67,-1.67
454.93,-4.87,-4.87,-3.23,-3.23,3.22,2.82,2.56,-1.65,-1.65,-1.64
459.48,-4.81,-4.81,-3.19,-3.19,3.18,2.78,2.58,-1.63,-1.63,-1.62
464.07,-4.73,-4.73,-3.13,-3.13,3.12,2.73,2.60,-1.61,-1.61,-1.60
468.71,-4.63,-4.63,-3.05,-3.05,3.05,2.68,2.62,-1.58,-1.59,-1.58
473.40,-4.52,-4.52,-2.97,-2.96,2.96,2.63,2.63,-1.56,-1.56,-1.55
478.13,-4.40,-4.40,-2.87,-2.87,2.86,2.58,2.64,-1.54,-1.53,-1.53
482.91,-4.27,-4.27,-2.76,-2.76,2.76,2.52,2.65,-1.51,-1.51,-1.51
487.74,-4.14,-4.14,-2.65,-2.65,2.66,2.46,2.65,-1.48,-1.48,-1.49
492.62,-4.01,-4.01,-2.54,-2.55,2.55,2.41,2.65,-1.46,-1.46,-1.46
