frequency,raw,smoothed,error,error_smoothed,equalization,parametric_eq,fixed_band_eq,equalized_raw,equalized_smoothed,target
20.00,-7.56,-7.56,-10.59,-10.59,6.00,6.20,2.74,-1.56,-1.56,3.03
20.20,-7.50,-7.50,-10.56,-10.56,6.00,6.20,2.82,-1.50,-1.50,3.06
20.40,-7.45,-7.45,-10.54,-10.53,6.00,6.20,2.90,-1.45,-1.45,3.09
20.61,-7.39,-7.39,-10.50,-10.50,6.00,6.19,2.98,-1.39,-1.39,3.11
20.81,-7.33,-7.33,-10.46,-10.47,6.00,6.19,3.07,-1.33,-1.33,3.14
21.02,-7.28,-7.28,-10.44,-10.43,6.00,6.19,3.15,-1.28,-1.28,3.16
21.23,-7.22,-7.22,-10.39,-10.40,6.00,6.19,3.24,-1.22,-1.22,3.17
21.44,-7.17,-7.17,-10.35,-10.36,6.00,6.18,3.34,-1.17,-1.17,3.18
21.66,-7.12,-7.12,-10.31,-10.31,6.00,6.18,3.43,-1.12,-1.12,3.19
21.87,-7.08,-7.08,-10.27,-10.27,6.00,6.18,3.53,-1.08,-1.08,3.19
22.09,-7.03,-7.03,-10.23,-10.23,6.00,6.17,3.63,-1.03,-1.03,3.20
22.31,-6.99,-6.99,-10.19,-10.19,6.00,6.17,3.73,-0.99,-0.99,3.20
22.54,-6.95,-6.95,-10.15,-10.15,6.00,6.17,3.84,-0.95,-0.95,3.20
22.76,-6.90,-6.90,-10.10,-10.10,6.00,6.16,3.95,-0.90,-0.90,3.20
22.99,-6.86,-6.86,-10.05,-10.05,6.00,6.16,4.06,-0.86,-0.86,3.19
23.22,-6.81,-6.81,-10.00,-10.00,6.00,6.16,4.17,-0.81,-0.81,3.19
23.45,-6.76,-6.76,-9.95,-9.95,6.00,6.15,4.29,-0.76,-0.76,3.19
23.69,-6.71,-6.71,-9.90,-9.90,6.00,6.15,4.41,-0.71,-0.71,3.19
23.92,-6.65,-6.65,-9.84,-9.84,6.00,6.15,4.53,-0.65,-0.65,3.19
24.16,-6.60,-6.60,-9.79,-9.79,6.00,6.14,4.65,-0.60,-0.60,3.20
24.40,-6.54,-6.54,-9.73,-9.73,6.00,6.14,4.78,-0.54,-0.54,3.19
24.65,-6.49,-6.49,-9.67,-9.68,6.00,6.14,4.91,-0.49,-0.49,3.18
24.89,-6.45,-6.45,-9.63,-9.63,6.00,6.13,5.04,-0.45,-0.45,3.18
25.14,-6.41,-6.41,-9.59,-9.59,6.00,6.13,5.17,-0.41,-0.41,3.18
25.39,-6.37,-6.37,-9.55,-9.55,6.00,6.12,5.30,-0.37,-0.37,3.18
25.65,-6.34,-6.34,-9.52,-9.51,6.00,6.12,5.43,-0.34,-0.34,3.18
25.91,-6.30,-6.30,-9.47,-9.47,6.00,6.11,5.57,-0.30,-0.30,3.17
26.16,-6.27,-6.27,-9.44,-9.44,6.00,6.11,5.70,-0.27,-0.27,3.17
26.43,-6.24,-6.24,-9.41,-9.40,6.00,6.11,5.83,-0.24,-0.24,3.17
26.69,-6.21,-6.21,-9.38,-9.38,6.00,6.10,5.96,-0.21,-0.21,3.17
26.96,-6.19,-6.19,-9.35,-9.36,6.00,6.10,6.10,-0.19,-0.19,3.16
27.23,-6.18,-6.18,-9.34,-9.34,6.00,6.09,6.22,-0.18,-0.18,3.16
27.50,-6.17,-6.17,-9.33,-9.33,6.00,6.09,6.35,-0.17,-0.17,3.16
27.77,-6.17,-6.16,-9.32,-9.32,6.00,6.08,6.47,-0.17,-0.16,3.15
28.05,-6.15,-6.15,-9.30,-9.30,6.00,6.08,6.59,-0.15,-0.15,3.15
28.33,-6.13,-6.13,-9.27,-9.27,6.00,6.07,6.70,-0.13,-0.13,3.14
28.62,-6.11,-6.10,-9.25,-9.24,6.00,6.06,6.81,-0.11,-0.10,3.14
28.90,-6.07,-6.08,-9.20,-9.21,6.00,6.06,6.90,-0.07,-0.08,3.13
29.19,-6.05,-6.05,-9.17,-9.18,6.00,6.05,7.00,-0.05,-0.05,3.12
29.48,-6.03,-6.03,-9.16,-9.16,6.00,6.05,7.08,-0.03,-0.03,3.13
29.78,-6.02,-6.02,-9.14,-9.14,6.00,6.04,7.16,-0.02,-0.02,3.12
30.08,-6.02,-6.02,-9.14,-9.14,6.00,6.04,7.22,-0.02,-0.02,3.12
30.38,-6.02,-6.02,-9.12,-9.13,6.00,6.03,7.28,-0.02,-0.02,3.10
30.68,-6.02,-6.02,-9.12,-9.12,6.00,6.02,7.32,-0.02,-0.02,3.10
30.99,-6.01,-6.01,-9.10,-9.10,6.00,6.02,7.36,-0.01,-0.01,3.09
31.30,-5.99,-5.99,-9.08,-9.08,6.00,6.01,7.38,0.01,0.01,3.09
31.61,-5.96,-5.97,-9.05,-9.05,6.00,6.00,7.39,0.04,0.03,3.09
31.93,-5.94,-5.94,-9.01,-9.02,6.00,6.00,7.39,0.06,0.06,3.07
32.24,-5.92,-5.92,-8.98,-8.98,6.00,5.99,7.38,0.08,0.08,3.06
32.57,-5.89,-5.89,-8.95,-8.95,6.00,5.98,7.36,0.11,0.11,3.06
32.89,-5.86,-5.86,-8.92,-8.92,6.00,5.97,7.33,0.14,0.14,3.06
33.22,-5.84,-5.84,-8.88,-8.88,6.00,5.97,7.29,0.16,0.16,3.04
33.55,-5.82,-5.82,-8.86,-8.86,6.00,5.96,7.24,0.18,0.18,3.04
33.89,-5.81,-5.81,-8.84,-8.84,6.00,5.95,7.19,0.19,0.19,3.03
34.23,-5.82,-5.82,-8.85,-8.84,6.00,5.94,7.13,0.18,0.18,3.02
34.57,-5.84,-5.85,-8.85,-8.86,6.00,5.93,7.06,0.16,0.15,3.01
34.92,-5.88,-5.87,-8.88,-8.88,6.00,5.92,6.99,0.12,0.13,3.00
35.27,-5.90,-5.90,-8.90,-8.89,6.00,5.91,6.91,0.10,0.10,3.00
35.62,-5.91,-5.91,-8.89,-8.89,6.00,5.90,6.83,0.09,0.09,2.98
35.97,-5.90,-5.90,-8.87,-8.87,6.00,5.90,6.74,0.10,0.10,2.97
36.33,-5.86,-5.86,-8.82,-8.82,6.00,5.89,6.65,0.14,0.14,2.96
36.70,-5.78,-5.78,-8.73,-8.73,6.00,5.88,6.57,0.22,0.22,2.95
37.06,-5.68,-5.68,-8.62,-8.62,6.00,5.87,6.48,0.32,0.32,2.94
37.43,-5.55,-5.55,-8.48,-8.47,6.00,5.86,6.39,0.45,0.45,2.93
37.81,-5.39,-5.39,-8.31,-8.31,6.00,5.84,6.30,0.61,0.61,2.92
38.19,-5.22,-5.22,-8.12,-8.12,6.00,5.83,6.21,0.78,0.78,2.90
38.57,-5.03,-5.03,-7.93,-7.93,6.00,5.82,6.13,0.97,0.97,2.90
38.95,-4.85,-4.85,-7.73,-7.73,6.00,5.81,6.04,1.15,1.15,2.88
39.34,-4.68,-4.68,-7.55,-7.55,6.00,5.80,5.96,1.32,1.32,2.87
39.74,-4.51,-4.51,-7.36,-7.37,6.00,5.79,5.88,1.49,1.49,2.85
40.14,-4.36,-4.36,-7.21,-7.20,6.00,5.77,5.81,1.64,1.64,2.85
40.54,-4.21,-4.21,-7.04,-7.05,6.00,5.76,5.73,1.79,1.79,2.83
40.94,-4.07,-4.07,-6.90,-6.89,6.00,5.75,5.66,1.93,1.93,2.83
41.35,-3.95,-3.94,-6.76,-6.76,6.00,5.74,5.60,2.05,2.06,2.81
41.76,-3.83,-3.84,-6.63,-6.65,6.00,5.72,5.53,2.17,2.16,2.80
42.18,-3.76,-3.76,-6.56,-6.55,6.00,5.71,5.47,2.24,2.24,2.80
42.60,-3.70,-3.69,-6.48,-6.48,6.00,5.69,5.42,2.30,2.31,2.78
43.03,-3.64,-3.64,-6.41,-6.41,6.00,5.68,5.37,2.36,2.36,2.77
43.46,-3.59,-3.59,-6.35,-6.34,6.00,5.66,5.32,2.41,2.41,2.76
43.90,-3.54,-3.54,-6.27,-6.28,6.00,5.65,5.28,2.46,2.46,2.73
44.33,-3.51,-3.52,-6.22,-6.23,6.01,5.63,5.24,2.50,2.49,2.71
44.78,-3.50,-3.50,-6.19,-6.19,6.00,5.62,5.20,2.50,2.50,2.69
45.23,-3.49,-3.48,-6.17,-6.16,6.00,5.60,5.17,2.51,2.52,2.68
45.68,-3.46,-3.45,-6.12,-6.11,5.99,5.58,5.14,2.53,2.54,2.66
46.13,-3.41,-3.41,-6.05,-6.05,5.99,5.57,5.12,2.58,2.58,2.64
46.60,-3.36,-3.36,-5.99,-5.99,5.97,5.55,5.10,2.61,2.61,2.63
47.06,-3.33,-3.33,-5.94,-5.94,5.96,5.53,5.08,2.63,2.62,2.61
47.53,-3.32,-3.33,-5.91,-5.92,5.93,5.51,5.07,2.61,2.61,2.59
48.01,-3.33,-3.33,-5.91,-5.90,5.90,5.49,5.06,2.57,2.57,2.58
48.49,-3.34,-3.33,-5.89,-5.88,5.87,5.47,5.05,2.53,2.53,2.55
48.97,-3.33,-3.33,-5.85,-5.85,5.83,5.45,5.05,2.50,2.50,2.52
49.46,-3.31,-3.31,-5.80,-5.79,5.79,5.43,5.05,2.48,2.48,2.49
49.96,-3.28,-3.28,-5.73,-5.74,5.75,5.41,5.06,2.47,2.47,2.45
50.46,-3.25,-3.26,-5.69,-5.69,5.71,5.39,5.06,2.46,2.46,2.44
50.96,-3.24,-3.24,-5.66,-5.66,5.68,5.36,5.07,2.44,2.44,2.42
51.47,-3.24,-3.24,-5.63,-5.63,5.65,5.34,5.08,2.41,2.41,2.39
51.99,-3.25,-3.25,-5.61,-5.61,5.61,5.32,5.09,2.36,2.37,2.36
52.51,-3.25,-3.25,-5.60,-5.60,5.58,5.29,5.10,2.33,2.33,2.35
53.03,-3.25,-3.25,-5.57,-5.57,5.55,5.27,5.12,2.30,2.30,2.32
53.56,-3.24,-3.24,-5.54,-5.54,5.52,5.24,5.13,2.28,2.28,2.30
54.10,-3.22,-3.22,-5.49,-5.49,5.49,5.22,5.14,2.27,2.27,2.27
54.64,-3.19,-3.19,-5.44,-5.44,5.45,5.19,5.16,2.26,2.25,2.25
55.18,-3.16,-3.17,-5.38,-5.39,5.40,5.16,5.17,2.24,2.23,2.22
55.74,-3.15,-3.15,-5.34,-5.34,5.35,5.14,5.18,2.20,2.21,2.19
56.29,-3.13,-3.13,-5.31,-5.30,5.30,5.11,5.19,2.17,2.17,2.18
56.86,-3.11,-3.11,-5.26,-5.26,5.25,5.08,5.20,2.14,2.15,2.15
57.42,-3.08,-3.08,-5.20,-5.20,5.20,5.05,5.21,2.12,2.12,2.12
58.00,-3.04,-3.05,-5.14,-5.15,5.15,5.02,5.21,2.11,2.10,2.10
58.58,-3.01,-3.01,-5.09,-5.09,5.08,4.98,5.21,2.07,2.08,2.08
59.16,-2.97,-2.97,-5.03,-5.03,5.02,4.95,5.20,2.05,2.05,2.06
59.76,-2.92,-2.92,-4.96,-4.96,4.95,4.92,5.19,2.03,2.03,2.04
60.35,-2.87,-2.87,-4.88,-4.88,4.87,4.89,5.18,2.00,2.00,2.01
60.96,-2.82,-2.82,-4.81,-4.80,4.80,4.85,5.16,1.98,1.98,1.98
61.57,-2.77,-2.77,-4.71,-4.71,4.72,4.82,5.14,1.95,1.95,1.94
62.18,-2.72,-2.72,-4.63,-4.63,4.65,4.78,5.11,1.93,1.93,1.91
62.80,-2.68,-2.68,-4.56,-4.56,4.57,4.74,5.08,1.89,1.89,1.88
63.43,-2.65,-2.65,-4.50,-4.50,4.50,4.71,5.04,1.85,1.85,1.85
64.07,-2.62,-2.61,-4.44,-4.44,4.43,4.67,4.99,1.81,1.82,1.82
64.71,-2.57,-2.58,-4.37,-4.37,4.36,4.63,4.94,1.79,1.79,1.80
65.35,-2.54,-2.54,-4.31,-4.31,4.30,4.59,4.89,1.76,1.76,1.77
66.01,-2.50,-2.50,-4.24,-4.24,4.23,4.55,4.83,1.73,1.74,1.74
66.67,-2.46,-2.46,-4.17,-4.17,4.17,4.51,4.77,1.71,1.71,1.71
67.33,-2.42,-2.42,-4.10,-4.10,4.11,4.46,4.70,1.69,1.69,1.68
68.01,-2.38,-2.39,-4.03,-4.04,4.04,4.42,4.63,1.66,1.66,1.65
68.69,-2.36,-2.36,-3.98,-3.98,3.98,4.37,4.55,1.62,1.62,1.62
69.37,-2.34,-2.33,-3.93,-3.92,3.92,4.33,4.47,1.58,1.59,1.59
70.07,-2.30,-2.31,-3.86,-3.86,3.86,4.28,4.39,1.56,1.55,1.55
70.77,-2.28,-2.28,-3.81,-3.81,3.80,4.24,4.31,1.52,1.52,1.53
71.48,-2.25,-2.25,-3.75,-3.75,3.74,4.19,4.22,1.49,1.49,1.50
72.19,-2.23,-2.22,-3.69,-3.68,3.68,4.14,4.13,1.45,1.46,1.46
72.91,-2.19,-2.20,-3.62,-3.62,3.63,4.09,4.05,1.44,1.43,1.43
73.64,-2.17,-2.17,-3.56,-3.56,3.58,4.04,3.96,1.40,1.40,1.39
74.38,-2.16,-2.15,-3.52,-3.51,3.52,3.99,3.86,1.36,1.37,1.36
75.12,-2.14,-2.14,-3.46,-3.47,3.47,3.94,3.77,1.33,1.33,1.32
75.87,-2.13,-2.13,-3.42,-3.43,3.42,3.88,3.68,1.29,1.29,1.29
76.63,-2.12,-2.12,-3.38,-3.38,3.37,3.83,3.59,1.25,1.25,1.26
77.40,-2.11,-2.10,-3.34,-3.33,3.32,3.77,3.50,1.21,1.22,1.23
78.17,-2.08,-2.08,-3.27,-3.28,3.27,3.72,3.41,1.19,1.19,1.19
78.95,-2.05,-2.05,-3.22,-3.22,3.23,3.66,3.33,1.18,1.17,1.17
79.74,-2.03,-2.03,-3.16,-3.17,3.18,3.60,3.24,1.15,1.14,1.13
80.54,-2.02,-2.02,-3.12,-3.12,3.13,3.55,3.15,1.11,1.11,1.10
81.35,-2.02,-2.02,-3.09,-3.08,3.08,3.49,3.07,1.06,1.06,1.07
82.16,-2.01,-2.01,-3.04,-3.04,3.04,3.43,2.98,1.03,1.03,1.03
82.98,-2.00,-2.00,-3.00,-2.99,2.99,3.37,2.90,0.99,0.99,1.00
83.81,-1.98,-1.99,-2.94,-2.95,2.95,3.31,2.82,0.97,0.96,0.96
84.65,-1.98,-1.98,-2.90,-2.90,2.91,3.25,2.74,0.93,0.93,0.92
85.50,-1.97,-1.97,-2.86,-2.86,2.86,3.18,2.67,0.89,0.89,0.89
86.35,-1.97,-1.97,-2.82,-2.82,2.81,3.12,2.59,0.84,0.84,0.85
87.22,-1.96,-1.96,-2.77,-2.77,2.76,3.06,2.52,0.80,0.80,0.81
88.09,-1.95,-1.94,-2.72,-2.72,2.71,2.99,2.45,0.76,0.77,0.77
88.97,-1.92,-1.92,-2.66,-2.66,2.66,2.93,2.38,0.74,0.74,0.74
89.86,-1.90,-1.90,-2.60,-2.60,2.61,2.87,2.31,0.71,0.71,0.70
90.76,-1.89,-1.90,-2.54,-2.55,2.56,2.80,2.25,0.67,0.66,0.65
91.66,-1.90,-1.89,-2.51,-2.50,2.50,2.74,2.18,0.60,0.61,0.61
92.58,-1.90,-1.89,-2.46,-2.45,2.45,2.67,2.12,0.55,0.56,0.56
93.51,-1.87,-1.88,-2.40,-2.40,2.40,2.60,2.06,0.53,0.52,0.53
94.44,-1.86,-1.86,-2.34,-2.34,2.34,2.54,2.00,0.48,0.48,0.48
95.39,-1.85,-1.85,-2.29,-2.28,2.29,2.47,1.94,0.44,0.44,0.44
96.34,-1.84,-1.85,-2.22,-2.23,2.24,2.40,1.89,0.40,0.39,0.38
97.30,-1.85,-1.84,-2.19,-2.18,2.18,2.34,1.83,0.33,0.34,0.34
98.28,-1.84,-1.84,-2.13,-2.13,2.13,2.27,1.78,0.29,0.29,0.29
99.26,-1.83,-1.83,-2.08,-2.07,2.07,2.20,1.73,0.24,0.24,0.25
100.25,-1.81,-1.81,-2.01,-2.02,2.02,2.14,1.68,0.21,0.20,0.20
101.25,-1.80,-1.80,-1.96,-1.96,1.96,2.07,1.63,0.16,0.16,0.16
102.27,-1.80,-1.80,-1.91,-1.91,1.91,2.01,1.58,0.11,0.11,0.11
103.29,-1.80,-1.80,-1.85,-1.86,1.86,1.94,1.54,0.06,0.06,0.05
104.32,-1.80,-1.80,-1.82,-1.81,1.81,1.87,1.49,0.01,0.01,0.02
105.37,-1.79,-1.79,-1.76,-1.76,1.76,1.81,1.45,-0.03,-0.03,-0.03
106.42,-1.78,-1.78,-1.70,-1.71,1.71,1.74,1.41,-0.07,-0.08,-0.08
107.48,-1.78,-1.79,-1.66,-1.66,1.66,1.68,1.37,-0.12,-0.12,-0.12
108.56,-1.80,-1.79,-1.62,-1.61,1.62,1.61,1.33,-0.18,-0.17,-0.18
109.64,-1.80,-1.80,-1.58,-1.57,1.58,1.55,1.29,-0.22,-0.22,-0.22
110.74,-1.79,-1.80,-1.52,-1.53,1.53,1.49,1.25,-0.26,-0.27,-0.27
111.85,-1.82,-1.81,-1.50,-1.49,1.49,1.43,1.21,-0.33,-0.32,-0.32
112.97,-1.82,-1.82,-1.44,-1.45,1.44,1.37,1.17,-0.38,-0.38,-0.38
114.10,-1.83,-1.84,-1.40,-1.41,1.40,1.30,1.13,-0.43,-0.44,-0.43
115.24,-1.85,-1.83,-1.37,-1.35,1.34,1.25,1.10,-0.51,-0.49,-0.48
116.39,-1.82,-1.83,-1.28,-1.29,1.29,1.19,1.06,-0.53,-0.54,-0.54
117.55,-1.81,-1.82,-1.22,-1.23,1.23,1.13,1.03,-0.58,-0.59,-0.59
118.73,-1.81,-1.80,-1.17,-1.16,1.17,1.07,0.99,-0.64,-0.64,-0.64
119.92,-1.80,-1.79,-1.11,-1.10,1.10,1.02,0.96,-0.70,-0.69,-0.69
121.12,-1.77,-1.77,-1.03,-1.03,1.04,0.96,0.92,-0.73,-0.73,-0.74
122.33,-1.75,-1.76,-0.96,-0.97,0.98,0.91,0.89,-0.77,-0.78,-0.79
123.55,-1.76,-1.76,-0.93,-0.92,0.92,0.86,0.86,-0.84,-0.83,-0.83
124.79,-1.76,-1.76,-0.87,-0.87,0.87,0.81,0.82,-0.89,-0.89,-0.89
126.03,-1.76,-1.76,-0.82,-0.82,0.81,0.76,0.79,-0.95,-0.94,-0.94
127.29,-1.75,-1.75,-0.76,-0.76,0.76,0.71,0.76,-0.99,-0.99,-0.99
128.57,-1.75,-1.75,-0.70,-0.71,0.72,0.66,0.72,-1.03,-1.04,-1.05
129.85,-1.76,-1.76,-0.67,-0.67,0.67,0.61,0.69,-1.09,-1.09,-1.09
131.15,-1.77,-1.77,-0.63,-0.63,0.63,0.57,0.66,-1.14,-1.14,-1.14
132.46,-1.78,-1.77,-0.59,-0.59,0.58,0.52,0.62,-1.20,-1.19,-1.19
133.79,-1.77,-1.78,-0.54,-0.55,0.54,0.48,0.59,-1.23,-1.24,-1.23
135.12,-1.78,-1.78,-0.50,-0.50,0.50,0.44,0.56,-1.28,-1.28,-1.28
136.48,-1.78,-1.78,-0.46,-0.46,0.45,0.39,0.53,-1.33,-1.32,-1.32
137.84,-1.77,-1.77,-0.41,-0.41,0.41,0.35,0.49,-1.36,-1.37,-1.36
139.22,-1.77,-1.77,-0.36,-0.36,0.36,0.31,0.46,-1.41,-1.41,-1.41
140.61,-1.76,-1.76,-0.30,-0.31,0.32,0.27,0.43,-1.44,-1.45,-1.46
142.02,-1.76,-1.76,-0.28,-0.27,0.27,0.23,0.39,-1.49,-1.49,-1.48
143.44,-1.75,-1.75,-0.23,-0.23,0.23,0.19,0.36,-1.52,-1.52,-1.52
144.87,-1.75,-1.75,-0.19,-0.19,0.19,0.15,0.33,-1.56,-1.56,-1.56
146.32,-1.74,-1.74,-0.14,-0.15,0.15,0.11,0.29,-1.59,-1.59,-1.60
147.78,-1.74,-1.74,-0.11,-0.11,0.11,0.06,0.26,-1.63,-1.63,-1.63
149.26,-1.74,-1.74,-0.07,-0.07,0.07,0.02,0.22,-1.67,-1.67,-1.67
150.75,-1.74,-1.74,-0.03,-0.03,0.03,-0.02,0.19,-1.71,-1.71,-1.71
152.26,-1.74,-1.74,0.01,0.01,-0.01,-0.06,0.16,-1.75,-1.75,-1.75
153.78,-1.74,-1.74,0.05,0.05,-0.06,-0.11,0.12,-1.80,-1.79,-1.79
155.32,-1.73,-1.73,0.10,0.10,-0.10,-0.15,0.09,-1.83,-1.83,-1.83
156.88,-1.72,-1.72,0.14,0.15,-0.15,-0.20,0.05,-1.87,-1.87,-1.87
158.44,-1.71,-1.71,0.20,0.20,-0.19,-0.24,0.02,-1.90,-1.90,-1.91
160.03,-1.71,-1.71,0.24,0.24,-0.24,-0.29,-0.02,-1.95,-1.95,-1.95
161.63,-1.70,-1.70,0.29,0.29,-0.29,-0.33,-0.05,-1.99,-1.99,-1.99
163.24,-1.69,-1.69,0.34,0.33,-0.34,-0.37,-0.09,-2.03,-2.03,-2.03
164.88,-1.69,-1.68,0.37,0.38,-0.39,-0.42,-0.13,-2.08,-2.07,-2.06
166.53,-1.67,-1.67,0.43,0.43,-0.44,-0.46,-0.16,-2.11,-2.11,-2.10
168.19,-1.65,-1.65,0.49,0.49,-0.49,-0.50,-0.20,-2.14,-2.14,-2.14
169.87,-1.63,-1.63,0.55,0.55,-0.54,-0.55,-0.24,-2.17,-2.17,-2.18
171.57,-1.62,-1.62,0.59,0.59,-0.58,-0.59,-0.27,-2.20,-2.21,-2.21
173.29,-1.62,-1.62,0.63,0.63,-0.63,-0.63,-0.31,-2.25,-2.25,-2.25
175.02,-1.62,-1.62,0.67,0.67,-0.67,-0.67,-0.35,-2.29,-2.29,-2.29
176.77,-1.61,-1.62,0.72,0.71,-0.71,-0.70,-0.39,-2.32,-2.33,-2.33
178.54,-1.62,-1.62,0.75,0.75,-0.75,-0.74,-0.43,-2.37,-2.37,-2.37
180.32,-1.62,-1.62,0.79,0.79,-0.79,-0.78,-0.47,-2.41,-2.41,-2.41
182.13,-1.62,-1.62,0.82,0.82,-0.83,-0.81,-0.51,-2.45,-2.45,-2.44
183.95,-1.62,-1.62,0.86,0.86,-0.87,-0.85,-0.55,-2.49,-2.49,-2.48
185.79,-1.62,-1.61,0.89,0.90,-0.90,-0.88,-0.59,-2.52,-2.52,-2.51
187.65,-1.61,-1.61,0.94,0.95,-0.94,-0.91,-0.63,-2.55,-2.55,-2.55
189.52,-1.59,-1.60,0.99,0.98,-0.98,-0.94,-0.67,-2.57,-2.58,-2.58
191.42,-1.60,-1.60,1.01,1.01,-1.01,-0.97,-0.71,-2.61,-2.61,-2.61
193.33,-1.61,-1.60,1.03,1.04,-1.04,-1.00,-0.76,-2.65,-2.64,-2.64
195.27,-1.60,-1.60,1.07,1.07,-1.07,-1.03,-0.80,-2.67,-2.67,-2.67
197.22,-1.59,-1.60,1.11,1.10,-1.10,-1.06,-0.84,-2.69,-2.70,-2.70
199.19,-1.60,-1.60,1.14,1.13,-1.12,-1.08,-0.88,-2.72,-2.72,-2.74
201.18,-1.62,-1.61,1.13,1.14,-1.14,-1.11,-0.92,-2.76,-2.75,-2.75
203.19,-1.62,-1.62,1.15,1.15,-1.16,-1.13,-0.97,-2.78,-2.78,-2.77
205.23,-1.62,-1.62,1.17,1.17,-1.18,-1.16,-1.01,-2.80,-2.80,-2.79
207.28,-1.61,-1.61,1.19,1.20,-1.20,-1.18,-1.05,-2.81,-2.81,-2.80
209.35,-1.60,-1.61,1.22,1.22,-1.21,-1.20,-1.09,-2.82,-2.82,-2.82
211.44,-1.61,-1.60,1.24,1.24,-1.23,-1.22,-1.13,-2.84,-2.83,-2.85
213.56,-1.60,-1.60,1.25,1.25,-1.25,-1.24,-1.17,-2.85,-2.85,-2.85
215.69,-1.60,-1.60,1.26,1.26,-1.26,-1.25,-1.21,-2.86,-2.86,-2.86
217.85,-1.60,-1.60,1.27,1.27,-1.27,-1.27,-1.25,-2.87,-2.87,-2.87
220.03,-1.59,-1.59,1.29,1.28,-1.28,-1.28,-1.28,-2.87,-2.88,-2.88
222.23,-1.59,-1.59,1.30,1.30,-1.29,-1.30,-1.32,-2.88,-2.88,-2.89
224.45,-1.59,-1.59,1.29,1.30,-1.30,-1.31,-1.35,-2.89,-2.89,-2.88
226.70,-1.58,-1.58,1.30,1.30,-1.31,-1.32,-1.38,-2.89,-2.89,-2.88
228.96,-1.58,-1.58,1.31,1.30,-1.31,-1.33,-1.41,-2.89,-2.89,-2.89
231.25,-1.57,-1.56,1.31,1.32,-1.32,-1.33,-1.44,-2.89,-2.88,-2.88
233.57,-1.55,-1.55,1.33,1.32,-1.32,-1.33,-1.46,-2.87,-2.87,-2.88
235.90,-1.54,-1.55,1.34,1.33,-1.32,-1.34,-1.49,-2.86,-2.87,-2.88
238.26,-1.55,-1.55,1.33,1.33,-1.32,-1.34,-1.51,-2.87,-2.87,-2.88
240.64,-1.55,-1.55,1.31,1.32,-1.33,-1.33,-1.52,-2.88,-2.87,-2.86
243.05,-1.54,-1.54,1.31,1.31,-1.33,-1.33,-1.54,-2.87,-2.86,-2.85
245.48,-1.52,-1.52,1.32,1.32,-1.32,-1.33,-1.55,-2.84,-2.85,-2.84
247.93,-1.51,-1.51,1.32,1.32,-1.32,-1.32,-1.56,-2.83,-2.83,-2.83
250.41,-1.50,-1.50,1.33,1.32,-1.31,-1.31,-1.56,-2.81,-2.81,-2.83
252.92,-1.49,-1.49,1.31,1.31,-1.30,-1.30,-1.56,-2.79,-2.80,-2.81
255.45,-1.49,-1.49,1.29,1.29,-1.29,-1.29,-1.56,-2.78,-2.79,-2.78
258.00,-1.50,-1.49,1.27,1.28,-1.28,-1.28,-1.56,-2.78,-2.78,-2.77
260.58,-1.49,-1.49,1.27,1.26,-1.27,-1.27,-1.55,-2.76,-2.76,-2.76
263.19,-1.48,-1.48,1.25,1.25,-1.26,-1.25,-1.54,-2.74,-2.74,-2.73
265.82,-1.47,-1.47,1.25,1.25,-1.24,-1.24,-1.52,-2.71,-2.71,-2.72
268.48,-1.46,-1.46,1.24,1.24,-1.23,-1.22,-1.51,-2.69,-2.69,-2.70
271.16,-1.45,-1.45,1.22,1.22,-1.22,-1.21,-1.49,-2.67,-2.67,-2.67
273.87,-1.45,-1.45,1.21,1.20,-1.20,-1.19,-1.47,-2.65,-2.65,-2.66
276.61,-1.45,-1.45,1.18,1.19,-1.19,-1.17,-1.45,-2.64,-2.64,-2.63
279.38,-1.44,-1.45,1.18,1.17,-1.18,-1.16,-1.42,-2.62,-2.62,-2.62
282.17,-1.44,-1.44,1.16,1.16,-1.17,-1.14,-1.40,-2.61,-2.61,-2.60
284.99,-1.44,-1.43,1.14,1.15,-1.15,-1.12,-1.37,-2.59,-2.58,-2.58
287.84,-1.42,-1.42,1.14,1.14,-1.14,-1.11,-1.34,-2.56,-2.56,-2.56
290.72,-1.40,-1.40,1.14,1.13,-1.13,-1.09,-1.31,-2.53,-2.53,-2.54
293.63,-1.39,-1.40,1.13,1.12,-1.11,-1.07,-1.28,-2.50,-2.51,-2.52
296.57,-1.40,-1.40,1.10,1.10,-1.10,-1.06,-1.25,-2.50,-2.50,-2.50
299.53,-1.41,-1.40,1.07,1.08,-1.08,-1.04,-1.21,-2.49,-2.48,-2.48
302.53,-1.39,-1.39,1.07,1.06,-1.07,-1.02,-1.18,-2.46,-2.46,-2.46
305.55,-1.38,-1.39,1.05,1.05,-1.05,-1.01,-1.15,-2.43,-2.43,-2.43
308.61,-1.38,-1.37,1.03,1.03,-1.03,-0.99,-1.11,-2.41,-2.40,-2.41
311.69,-1.37,-1.37,1.01,1.01,-1.01,-0.97,-1.08,-2.38,-2.38,-2.38
314.81,-1.36,-1.37,0.99,0.99,-0.99,-0.96,-1.05,-2.35,-2.36,-2.35
317.96,-1.36,-1.36,0.97,0.97,-0.98,-0.94,-1.01,-2.34,-2.34,-2.33
321.14,-1.36,-1.35,0.95,0.96,-0.97,-0.92,-0.98,-2.33,-2.32,-2.31
324.35,-1.34,-1.34,0.96,0.95,-0.95,-0.91,-0.95,-2.29,-2.30,-2.30
327.59,-1.33,-1.33,0.94,0.94,-0.94,-0.89,-0.91,-2.27,-2.27,-2.27
330.87,-1.32,-1.32,0.93,0.94,-0.93,-0.88,-0.88,-2.25,-2.25,-2.25
334.18,-1.31,-1.31,0.93,0.92,-0.91,-0.86,-0.85,-2.22,-2.23,-2.24
337.52,-1.31,-1.31,0.91,0.91,-0.90,-0.85,-0.81,-2.21,-2.21,-2.22
340.90,-1.31,-1.31,0.88,0.89,-0.89,-0.83,-0.78,-2.20,-2.19,-2.19
344.30,-1.30,-1.31,0.87,0.87,-0.87,-0.82,-0.75,-2.17,-2.18,-2.17
347.75,-1.31,-1.31,0.85,0.85,-0.86,-0.80,-0.72,-2.17,-2.16,-2.16
351.23,-1.31,-1.30,0.83,0.83,-0.84,-0.79,-0.69,-2.15,-2.14,-2.14
354.74,-1.30,-1.30,0.82,0.82,-0.82,-0.77,-0.66,-2.12,-2.12,-2.12
358.28,-1.29,-1.29,0.81,0.81,-0.81,-0.76,-0.63,-2.10,-2.10,-2.10
361.87,-1.29,-1.29,0.79,0.79,-0.79,-0.74,-0.61,-2.08,-2.08,-2.08
365.49,-1.30,-1.30,0.77,0.77,-0.77,-0.73,-0.58,-2.07,-2.07,-2.07
369.14,-1.32,-1.31,0.74,0.75,-0.75,-0.71,-0.55,-2.07,-2.06,-2.06
372.83,-1.32,-1.32,0.72,0.72,-0.72,-0.70,-0.52,-2.04,-2.04,-2.04
376.56,-1.33,-1.34,0.70,0.69,-0.69,-0.68,-0.50,-2.02,-2.02,-2.03
380.33,-1.36,-1.36,0.64,0.65,-0.64,-0.67,-0.47,-2.00,-2.00,-2.00
384.13,-1.39,-1.39,0.60,0.60,-0.59,-0.65,-0.45,-1.98,-1.98,-2.00
387.97,-1.44,-1.44,0.55,0.54,-0.53,-0.64,-0.43,-1.97,-1.97,-1.99
391.85,-1.50,-1.50,0.48,0.47,-0.46,-0.62,-0.40,-1.96,-1.96,-1.98
395.77,-1.57,-1.57,0.39,0.39,-0.39,-0.61,-0.38,-1.96,-1.96,-1.96
399.73,-1.64,-1.64,0.31,0.32,-0.31,-0.59,-0.36,-1.95,-1.95,-1.95
403.72,-1.70,-1.71,0.24,0.24,-0.24,-0.57,-0.33,-1.94,-1.95,-1.94
407.76,-1.76,-1.76,0.17,0.17,-0.18,-0.56,-0.31,-1.94,-1.95,-1.93
411.84,-1.82,-1.81,0.09,0.11,-0.13,-0.54,-0.29,-1.95,-1.94,-1.91
415.96,-1.83,-1.83,0.08,0.08,-0.10,-0.52,-0.27,-1.93,-1.93,-1.91
420.12,-1.83,-1.83,0.07,0.06,-0.08,-0.51,-0.25,-1.91,-1.91,-1.90
424.32,-1.82,-1.82,0.07,0.07,-0.08,-0.49,-0.24,-1.90,-1.90,-1.89
428.56,-1.80,-1.80,0.08,0.08,-0.08,-0.47,-0.22,-1.88,-1.88,-1.88
432.85,-1.77,-1.77,0.10,0.10,-0.10,-0.45,-0.20,-1.87,-1.86,-1.87
437.18,-1.73,-1.74,0.13,0.12,-0.11,-0.43,-0.18,-1.84,-1.85,-1.86
441.55,-1.71,-1.70,0.13,0.14,-0.13,-0.41,-0.17,-1.84,-1.83,-1.84
445.96,-1.68,-1.68,0.15,0.15,-0.14,-0.38,-0.15,-1.82,-1.82,-1.83
450.42,-1.66,-1.67,0.16,0.15,-0.15,-0.36,-0.14,-1.81,-1.82,-1.82
454.93,-1.67,-1.66,0.14,0.15,-0.14,-0.33,-0.13,-1.81,-1.80,-1.81
459.48,-1.65,-1.66,0.15,0.14,-0.13,-0.31,-0.11,-1.78,-1.79,-1.80
464.07,-1.65,-1.66,0.13,0.12,-0.12,-0.28,-0.10,-1.77,-1.77,-1.78
