frequency,raw
20.00,-41.18
20.20,-40.77
20.40,-40.35
20.61,-39.94
20.81,-39.72
21.02,-39.67
21.23,-39.77
21.44,-40.04
21.66,-40.36
21.87,-40.63
22.09,-40.76
22.31,-40.78
22.54,-40.76
22.76,-40.75
22.99,-40.84
23.22,-41.14
23.45,-41.59
23.69,-42.21
23.92,-42.97
24.16,-43.85
24.40,-44.84
24.65,-45.88
24.89,-46.84
25.14,-47.54
25.39,-48.06
25.65,-48.07
25.91,-48.04
26.16,-47.98
26.43,-48.18
26.69,-48.63
26.96,-49.18
27.23,-49.78
27.50,-50.25
27.77,-50.45
28.05,-50.43
28.33,-50.13
28.62,-49.89
28.90,-49.73
29.19,-49.53
29.48,-49.31
29.78,-48.65
30.08,-47.91
30.38,-46.98
30.68,-46.10
30.99,-45.51
31.30,-45.28
31.61,-45.48
31.93,-46.11
32.24,-47.12
32.57,-48.23
32.89,-49.27
33.22,-49.81
33.55,-49.99
33.89,-49.54
34.23,-49.12
34.57,-48.83
34.92,-48.92
35.27,-49.22
35.62,-49.55
35.97,-49.82
36.33,-49.92
36.70,-49.88
37.06,-49.67
37.43,-49.14
37.81,-48.50
38.19,-47.84
38.57,-47.45
38.95,-47.18
39.34,-46.96
39.74,-46.58
40.14,-45.94
40.54,-44.95
40.94,-43.86
41.35,-42.81
41.76,-41.89
42.18,-41.29
42.60,-40.80
43.03,-40.52
43.46,-40.33
43.90,-40.23
44.33,-40.20
44.78,-40.28
45.23,-40.37
45.68,-40.44
46.13,-40.49
46.60,-40.48
47.06,-40.34
47.53,-40.10
48.01,-39.75
48.49,-39.49
48.97,-39.51
49.46,-39.78
49.96,-40.44
50.46,-41.30
50.96,-42.22
51.47,-43.21
51.99,-44.18
52.51,-44.98
53.03,-45.64
53.56,-45.82
54.10,-45.76
54.64,-45.47
55.18,-45.09
55.74,-44.75
56.29,-44.46
56.86,-44.23
57.42,-44.17
58.00,-44.18
58.58,-44.43
59.16,-44.65
59.76,-44.79
60.35,-44.71
60.96,-44.49
61.57,-44.26
62.18,-44.28
62.80,-44.63
63.43,-45.03
64.07,-45.41
64.71,-45.44
65.35,-45.23
66.01,-44.81
66.67,-44.22
67.33,-43.67
68.01,-43.16
68.69,-42.79
69.37,-42.50
70.07,-42.26
70.77,-42.05
71.48,-41.76
72.19,-41.43
72.91,-41.06
73.64,-40.76
74.38,-40.56
75.12,-40.48
75.87,-40.49
76.63,-40.28
77.40,-39.89
78.17,-39.03
78.95,-38.04
79.74,-36.76
80.54,-35.50
81.35,-34.26
82.16,-33.15
82.98,-32.12
83.81,-31.16
84.65,-30.32
85.50,-29.54
86.35,-28.79
87.22,-28.06
88.09,-27.34
88.97,-26.66
89.86,-25.99
90.76,-25.38
91.66,-24.81
92.58,-24.26
93.51,-23.76
94.44,-23.28
95.39,-22.80
96.34,-22.29
97.30,-21.74
98.28,-21.15
99.26,-20.54
100.25,-19.92
101.25,-19.31
102.27,-18.75
103.29,-18.22
104.32,-17.78
105.37,-17.49
106.42,-17.28
107.48,-17.20
108.56,-17.31
109.64,-17.51
110.74,-17.78
111.85,-18.14
112.97,-18.54
114.10,-18.93
115.24,-19.31
116.39,-19.64
117.55,-19.94
118.73,-20.16
119.92,-20.36
121.12,-20.52
122.33,-20.63
123.55,-20.71
124.79,-20.77
126.03,-20.81
127.29,-20.88
128.57,-21.02
129.85,-21.24
131.15,-21.45
132.46,-21.73
133.79,-22.04
135.12,-22.35
136.48,-22.67
137.84,-23.02
139.22,-23.35
140.61,-23.60
142.02,-23.73
143.44,-23.80
144.87,-23.71
146.32,-23.51
147.78,-23.27
149.26,-22.94
150.75,-22.59
152.26,-22.21
153.78,-21.84
155.32,-21.49
156.88,-21.21
158.44,-21.05
160.03,-20.98
161.63,-21.17
163.24,-21.43
164.88,-21.79
166.53,-21.96
168.19,-21.91
169.87,-21.55
171.57,-20.82
173.29,-19.99
175.02,-19.09
176.77,-18.19
178.54,-17.31
180.32,-16.43
182.13,-15.56
183.95,-14.66
185.79,-13.73
187.65,-12.76
189.52,-11.76
191.42,-10.71
193.33,-9.62
195.27,-8.50
197.22,-7.36
199.19,-6.29
201.18,-5.37
203.19,-4.59
205.23,-4.22
207.28,-4.20
209.35,-4.48
211.44,-5.14
213.56,-5.95
215.69,-6.88
217.85,-7.83
220.03,-8.95
222.23,-10.17
224.45,-11.31
226.70,-12.11
228.96,-12.15
231.25,-11.68
233.57,-10.84
235.90,-9.80
238.26,-8.53
240.64,-7.16
243.05,-5.53
245.48,-3.78
247.93,-2.07
250.41,-0.47
252.92,0.91
255.45,2.09
258.00,3.11
260.58,3.74
263.19,4.22
265.82,4.41
268.48,4.39
271.16,4.17
273.87,3.79
276.61,3.34
279.38,2.83
282.17,2.30
284.99,1.76
287.84,1.26
290.72,0.77
293.63,0.31
296.57,-0.13
299.53,-0.53
302.53,-0.90
305.55,-1.25
308.61,-1.55
311.69,-1.83
314.81,-2.08
317.96,-2.29
321.14,-2.50
324.35,-2.69
327.59,-2.87
330.87,-3.05
334.18,-3.23
337.52,-3.40
340.90,-3.55
344.30,-3.69
347.75,-3.81
351.23,-3.91
354.74,-3.98
358.28,-4.01
361.87,-4.00
365.49,-3.93
369.14,-3.79
372.83,-3.61
376.56,-3.43
380.33,-3.25
384.13,-3.10
387.97,-2.98
391.85,-2.90
395.77,-2.81
399.73,-2.74
403.72,-2.66
407.76,-2.58
411.84,-2.49
415.96,-2.41
420.12,-2.34
424.32,-2.28
428.56,-2.23
432.85,-2.20
437.18,-2.18
441.55,-2.17
445.96,-2.18
450.42,-2.20
454.93,-2.25
459.48,-2.31
464.07,-2.39
468.71,-2.48
473.40,-2.58
478.13,-2.68
482.91,-2.78
487.74,-2.86
492.62,-2.92
497.55,-2.94
502.52,-2.90
507.55,-2.82
512.62,-2.65
517.75,-2.45
522.93,-2.23
528.16,-2.02
533.44,-1.86
538.77,-1.74
544.16,-1.69
549.60,-1.69
555.10,-1.73
560.65,-1.80
566.25,-1.94
571.92,-2.11
577.64,-2.34
583.41,-2.57
589.25,-2.80
595.14,-2.82
601.09,-2.74
607.10,-2.38
613.17,-1.88
619.30,-1.39
625.50,-0.98
631.75,-0.70
638.07,-0.56
644.45,-0.52
650.89,-0.52
657.40,-0.57
663.98,-0.59
670.62,-0.60
677.32,-0.55
684.10,-0.47
690.94,-0.36
697.85,-0.22
704.83,-0.08
711.87,0.06
718.99,0.19
726.18,0.29
733.44,0.36
740.78,0.42
748.19,0.44
755.67,0.45
763.23,0.45
770.86,0.44
778.57,0.43
786.35,0.41
794.22,0.41
802.16,0.40
810.18,0.41
818.28,0.43
826.46,0.46
834.73,0.51
843.08,0.56
851.51,0.62
860.02,0.68
868.62,0.75
877.31,0.82
886.08,0.89
894.94,0.95
903.89,0.99
912.93,1.00
922.06,0.97
931.28,0.91
940.59,0.81
950.00,0.69
959.50,0.55
969.09,0.41
978.78,0.26
988.57,0.13
998.46,0.02
1008.44,-0.08
1018.53,-0.17
1028.71,-0.24
1039.00,-0.29
1049.39,-0.32
1059.88,-0.34
1070.48,-0.30
1081.19,-0.23
1092.00,-0.14
1102.92,-0.00
1113.95,0.15
1125.09,0.32
1136.34,0.49
1147.70,0.67
1159.18,0.84
1170.77,1.00
1182.48,1.13
1194.30,1.23
1206.25,1.33
1218.31,1.42
1230.49,1.51
1242.80,1.60
1255.22,1.72
1267.78,1.85
1280.45,1.99
1293.26,2.14
1306.19,2.30
1319.25,2.45
1332.45,2.58
1345.77,2.71
1359.23,2.82
1372.82,2.91
1386.55,2.99
1400.41,3.06
1414.42,3.12
1428.56,3.18
1442.85,3.24
1457.28,3.31
1471.85,3.39
1486.57,3.48
1501.43,3.58
1516.45,3.70
1531.61,3.81
1546.93,3.94
1562.40,4.07
1578.02,4.20
1593.80,4.35
1609.74,4.52
1625.84,4.69
1642.10,4.88
1658.52,5.09
1675.10,5.31
1691.85,5.54
1708.77,5.78
1725.86,6.02
1743.12,6.27
1760.55,6.53
1778.15,6.79
1795.94,7.06
1813.90,7.34
1832.03,7.62
1850.36,7.91
1868.86,8.19
1887.55,8.45
1906.42,8.69
1925.49,8.90
1944.74,9.03
1964.19,9.11
1983.83,9.18
2003.67,9.28
2023.71,9.44
2043.94,9.63
2064.38,9.84
2085.03,10.06
2105.88,10.26
2126.94,10.45
2148.20,10.62
2169.69,10.77
2191.38,10.92
2213.30,11.03
2235.43,11.13
2257.78,11.22
2280.36,11.29
2303.17,11.36
2326.20,11.41
2349.46,11.45
2372.95,11.49
2396.68,11.51
2420.65,11.52
2444.86,11.51
2469.31,11.49
2494.00,11.43
2518.94,11.32
2544.13,11.19
2569.57,11.00
2595.27,10.80
2621.22,10.59
2647.43,10.39
2673.90,10.23
2700.64,10.08
2727.65,9.95
2754.93,9.83
2782.48,9.70
2810.30,9.58
2838.40,9.46
2866.79,9.35
2895.46,9.24
2924.41,9.16
2953.65,9.08
2983.19,9.02
3013.02,8.97
3043.15,8.92
3073.58,8.89
3104.32,8.87
3135.36,8.86
3166.72,8.86
3198.38,8.87
3230.37,8.88
3262.67,8.89
3295.30,8.91
3328.25,8.94
3361.53,8.97
3395.15,9.02
3429.10,9.10
3463.39,9.20
3498.03,9.32
3533.01,9.47
3568.34,9.63
3604.02,9.82
3640.06,10.03
3676.46,10.26
3713.22,10.50
3750.36,10.76
3787.86,11.03
3825.74,11.31
3864.00,11.57
3902.64,11.82
3941.66,12.05
3981.08,12.26
4020.89,12.44
4061.10,12.61
4101.71,12.73
4142.73,12.81
4184.15,12.86
4226.00,12.82
4268.26,12.74
4310.94,12.62
4354.05,12.47
4397.59,12.33
4441.56,12.19
4485.98,12.02
4530.84,11.83
4576.15,11.59
4621.91,11.34
4668.13,11.05
4714.81,10.73
4761.96,10.39
4809.58,10.02
4857.67,9.63
4906.25,9.24
4955.31,8.86
5004.87,8.47
5054.91,8.09
5105.46,7.72
5156.52,7.35
5208.08,7.01
5260.16,6.69
5312.77,6.38
5365.89,6.11
5419.55,5.87
5473.75,5.66
5528.49,5.47
5583.77,5.31
5639.61,5.18
5696.00,5.05
5752.96,4.99
5810.49,4.94
5868.60,4.96
5927.28,5.02
5986.56,5.12
6046.42,5.32
6106.89,5.61
6167.96,6.00
6229.64,6.53
6291.93,7.20
6354.85,8.08
6418.40,9.05
6482.58,10.19
6547.41,11.44
6612.88,12.72
6679.01,13.98
6745.80,15.05
6813.26,15.94
6881.39,16.46
6950.21,16.57
7019.71,16.39
7089.91,15.86
7160.81,15.06
7232.41,14.16
7304.74,13.20
7377.79,12.30
7451.56,11.55
7526.08,10.96
7601.34,10.53
7677.35,10.23
7754.13,9.96
7831.67,9.64
7909.98,9.24
7989.08,8.73
8068.98,7.99
8149.67,7.11
8231.16,6.04
8313.47,4.76
8396.61,3.38
8480.57,1.82
8565.38,0.16
8651.03,-1.52
8737.54,-3.21
8824.92,-4.71
8913.17,-5.82
9002.30,-6.76
9092.32,-7.14
9183.25,-7.38
9275.08,-7.57
9367.83,-7.82
9461.51,-8.31
9556.12,-8.99
9651.68,-9.82
9748.20,-10.74
9845.68,-11.33
9944.14,-11.33
10043.58,-10.57
10144.02,-9.24
10245.46,-7.57
10347.91,-5.95
10451.39,-4.43
10555.91,-3.14
10661.46,-1.98
10768.08,-0.96
10875.76,-0.17
10984.52,0.30
11094.36,0.54
11205.31,0.44
11317.36,-0.06
11430.53,-0.67
11544.84,-1.50
11660.29,-2.46
11776.89,-3.51
11894.66,-4.78
12013.60,-6.08
12133.74,-7.37
12255.08,-8.53
12377.63,-9.52
12501.41,-10.26
12626.42,-10.65
12752.68,-10.86
12880.21,-10.95
13009.01,-10.98
13139.10,-11.01
13270.49,-11.08
13403.20,-11.18
13537.23,-11.53
13672.60,-12.10
13809.33,-12.88
13947.42,-14.08
14086.90,-15.52
14227.77,-17.12
14370.04,-18.74
14513.74,-20.35
14658.88,-21.59
14805.47,-22.61
14953.52,-23.26
15103.06,-23.83
15254.09,-24.37
15406.63,-25.04
15560.70,-25.64
15716.30,-26.13
15873.47,-25.99
16032.20,-25.57
16192.52,-24.78
16354.45,-24.09
16517.99,-23.48
16683.17,-23.08
16850.01,-22.80
17018.51,-22.60
17188.69,-22.51
17360.58,-22.46
17534.18,-22.42
17709.53,-22.39
17886.62,-22.38
18065.49,-22.42
18246.14,-22.54
18428.60,-22.91
18612.89,-23.54
18799.02,-24.40
18987.01,-25.47
19176.88,-26.37
19368.65,-27.06
19562.33,-27.55
19757.96,-27.90
19955.54,-28.12
