frequency,raw
20.00,16.51
20.20,16.54
20.40,16.56
20.61,16.59
20.81,16.62
21.02,16.64
21.23,16.67
21.44,16.70
21.66,16.72
21.87,16.74
22.09,16.76
22.31,16.78
22.54,16.80
22.76,16.81
22.99,16.83
23.22,16.85
23.45,16.86
23.69,16.88
23.92,16.90
24.16,16.92
24.40,16.94
24.65,16.95
24.89,16.96
25.14,16.96
25.39,16.97
25.65,16.97
25.91,16.97
26.16,16.97
26.43,16.97
26.69,16.97
26.96,16.97
27.23,16.97
27.50,16.96
27.77,16.96
28.05,16.95
28.33,16.95
28.62,16.94
28.90,16.93
29.19,16.92
29.48,16.91
29.78,16.90
30.08,16.88
30.38,16.87
30.68,16.85
30.99,16.84
31.30,16.82
31.61,16.80
31.93,16.78
32.24,16.76
32.57,16.74
32.89,16.72
33.22,16.70
33.55,16.67
33.89,16.65
34.23,16.62
34.57,16.60
34.92,16.57
35.27,16.54
35.62,16.51
35.97,16.47
36.33,16.44
36.70,16.41
37.06,16.38
37.43,16.34
37.81,16.31
38.19,16.28
38.57,16.24
38.95,16.20
39.34,16.16
39.74,16.11
40.14,16.07
40.54,16.02
40.94,15.98
41.35,15.93
41.76,15.89
42.18,15.84
42.60,15.79
43.03,15.74
43.46,15.69
43.90,15.64
44.33,15.59
44.78,15.54
45.23,15.49
45.68,15.43
46.13,15.38
46.60,15.32
47.06,15.26
47.53,15.19
48.01,15.13
48.49,15.08
48.97,15.02
49.46,14.97
49.96,14.91
50.46,14.84
50.96,14.78
51.47,14.70
51.99,14.63
52.51,14.55
53.03,14.48
53.56,14.41
54.10,14.33
54.64,14.26
55.18,14.19
55.74,14.11
56.29,14.04
56.86,13.96
57.42,13.89
58.00,13.81
58.58,13.74
59.16,13.66
59.76,13.58
60.35,13.50
60.96,13.43
61.57,13.35
62.18,13.28
62.80,13.20
63.43,13.12
64.07,13.04
64.71,12.95
65.35,12.87
66.01,12.78
66.67,12.70
67.33,12.62
68.01,12.53
68.69,12.45
69.37,12.36
70.07,12.28
70.77,12.19
71.48,12.11
72.19,12.03
72.91,11.95
73.64,11.87
74.38,11.78
75.12,11.70
75.87,11.62
76.63,11.54
77.40,11.46
78.17,11.38
78.95,11.30
79.74,11.22
80.54,11.14
81.35,11.06
82.16,10.98
82.98,10.91
83.81,10.83
84.65,10.76
85.50,10.69
86.35,10.62
87.22,10.55
88.09,10.48
88.97,10.41
89.86,10.35
90.76,10.28
91.66,10.21
92.58,10.15
93.51,10.09
94.44,10.02
95.39,9.96
96.34,9.91
97.30,9.85
98.28,9.79
99.26,9.74
100.25,9.68
101.25,9.63
102.27,9.58
103.29,9.53
104.32,9.49
105.37,9.45
106.42,9.41
107.48,9.37
108.56,9.34
109.64,9.30
110.74,9.27
111.85,9.24
112.97,9.20
114.10,9.17
115.24,9.14
116.39,9.11
117.55,9.08
118.73,9.05
119.92,9.02
121.12,9.00
122.33,8.97
123.55,8.95
124.79,8.93
126.03,8.91
127.29,8.89
128.57,8.87
129.85,8.85
131.15,8.83
132.46,8.81
133.79,8.80
135.12,8.78
136.48,8.76
137.84,8.74
139.22,8.71
140.61,8.69
142.02,8.67
143.44,8.65
144.87,8.63
146.32,8.61
147.78,8.59
149.26,8.58
150.75,8.57
152.26,8.55
153.78,8.54
155.32,8.53
156.88,8.52
158.44,8.51
160.03,8.49
161.63,8.48
163.24,8.46
164.88,8.44
166.53,8.43
168.19,8.42
169.87,8.40
171.57,8.39
173.29,8.37
175.02,8.35
176.77,8.33
178.54,8.30
180.32,8.28
182.13,8.25
183.95,8.21
185.79,8.16
187.65,8.11
189.52,8.06
191.42,8.00
193.33,7.95
195.27,7.90
197.22,7.87
199.19,7.84
201.18,7.82
203.19,7.80
205.23,7.79
207.28,7.78
209.35,7.78
211.44,7.77
213.56,7.76
215.69,7.74
217.85,7.72
220.03,7.69
222.23,7.65
224.45,7.62
226.70,7.58
228.96,7.54
231.25,7.50
233.57,7.47
235.90,7.44
238.26,7.41
240.64,7.37
243.05,7.34
245.48,7.31
247.93,7.27
250.41,7.24
252.92,7.21
255.45,7.18
258.00,7.15
260.58,7.13
263.19,7.10
265.82,7.08
268.48,7.06
271.16,7.04
273.87,7.02
276.61,7.00
279.38,6.98
282.17,6.96
284.99,6.95
287.84,6.94
290.72,6.93
293.63,6.92
296.57,6.91
299.53,6.90
302.53,6.90
305.55,6.90
308.61,6.90
311.69,6.90
314.81,6.90
317.96,6.91
321.14,6.93
324.35,6.94
327.59,6.97
330.87,7.00
334.18,7.03
337.52,7.07
340.90,7.11
344.30,7.17
347.75,7.22
351.23,7.28
354.74,7.34
358.28,7.41
361.87,7.48
365.49,7.55
369.14,7.64
372.83,7.73
376.56,7.83
380.33,7.93
384.13,8.03
387.97,8.13
391.85,8.23
395.77,8.34
399.73,8.44
403.72,8.53
407.76,8.62
411.84,8.70
415.96,8.77
420.12,8.83
424.32,8.88
428.56,8.91
432.85,8.92
437.18,8.91
441.55,8.87
445.96,8.81
450.42,8.73
454.93,8.63
459.48,8.51
464.07,8.39
468.71,8.25
473.40,8.11
478.13,7.95
482.91,7.80
487.74,7.64
492.62,7.48
497.55,7.31
502.52,7.15
507.55,6.99
512.62,6.83
517.75,6.68
522.93,6.53
528.16,6.38
533.44,6.24
538.77,6.10
544.16,5.96
549.60,5.83
555.10,5.71
560.65,5.59
566.25,5.47
571.92,5.36
577.64,5.25
583.41,5.14
589.25,5.03
595.14,4.93
601.09,4.83
607.10,4.74
613.17,4.65
619.30,4.57
625.50,4.49
631.75,4.41
638.07,4.33
644.45,4.26
650.89,4.18
657.40,4.11
663.98,4.03
670.62,3.96
677.32,3.88
684.10,3.80
690.94,3.72
697.85,3.64
704.83,3.55
711.87,3.45
718.99,3.34
726.18,3.21
733.44,3.08
740.78,2.94
748.19,2.80
755.67,2.64
763.23,2.48
770.86,2.32
778.57,2.15
786.35,1.96
794.22,1.78
802.16,1.59
810.18,1.40
818.28,1.22
826.46,1.04
834.73,0.87
843.08,0.72
851.51,0.57
860.02,0.44
868.62,0.33
877.31,0.23
886.08,0.14
894.94,0.08
903.89,0.03
912.93,-0.02
922.06,-0.05
931.28,-0.07
940.59,-0.09
950.00,-0.10
959.50,-0.09
969.09,-0.08
978.78,-0.06
988.57,-0.03
998.46,-0.00
1008.44,0.02
1018.53,0.05
1028.71,0.08
1039.00,0.11
1049.39,0.13
1059.88,0.16
1070.48,0.19
1081.19,0.22
1092.00,0.25
1102.92,0.28
1113.95,0.32
1125.09,0.36
1136.34,0.39
1147.70,0.42
1159.18,0.45
1170.77,0.48
1182.48,0.51
1194.30,0.54
1206.25,0.57
1218.31,0.61
1230.49,0.66
1242.80,0.72
1255.22,0.79
1267.78,0.88
1280.45,0.97
1293.26,1.08
1306.19,1.19
1319.25,1.30
1332.45,1.41
1345.77,1.52
1359.23,1.62
1372.82,1.72
1386.55,1.82
1400.41,1.91
1414.42,2.01
1428.56,2.10
1442.85,2.21
1457.28,2.32
1471.85,2.43
1486.57,2.56
1501.43,2.69
1516.45,2.85
1531.61,3.01
1546.93,3.17
1562.40,3.34
1578.02,3.50
1593.80,3.67
1609.74,3.82
1625.84,3.98
1642.10,4.13
1658.52,4.27
1675.10,4.41
1691.85,4.55
1708.77,4.68
1725.86,4.81
1743.12,4.95
1760.55,5.09
1778.15,5.23
1795.94,5.37
1813.90,5.53
1832.03,5.69
1850.36,5.85
1868.86,6.01
1887.55,6.18
1906.42,6.34
1925.49,6.51
1944.74,6.66
1964.19,6.82
1983.83,6.97
2003.67,7.11
2023.71,7.25
2043.94,7.38
2064.38,7.52
2085.03,7.64
2105.88,7.76
2126.94,7.87
2148.20,7.98
2169.69,8.08
2191.38,8.18
2213.30,8.28
2235.43,8.37
2257.78,8.46
2280.36,8.55
2303.17,8.64
2326.20,8.74
2349.46,8.84
2372.95,8.94
2396.68,9.05
2420.65,9.17
2444.86,9.30
2469.31,9.43
2494.00,9.57
2518.94,9.71
2544.13,9.84
2569.57,9.97
2595.27,10.09
2621.22,10.21
2647.43,10.31
2673.90,10.41
2700.64,10.50
2727.65,10.59
2754.93,10.68
2782.48,10.76
2810.30,10.84
2838.40,10.91
2866.79,10.98
2895.46,11.06
2924.41,11.12
2953.65,11.19
2983.19,11.25
3013.02,11.31
3043.15,11.36
3073.58,11.41
3104.32,11.46
3135.36,11.51
3166.72,11.56
3198.38,11.61
3230.37,11.67
3262.67,11.72
3295.30,11.76
3328.25,11.81
3361.53,11.85
3395.15,11.89
3429.10,11.93
3463.39,11.97
3498.03,12.00
3533.01,12.03
3568.34,12.06
3604.02,12.10
3640.06,12.13
3676.46,12.17
3713.22,12.22
3750.36,12.28
3787.86,12.34
3825.74,12.41
3864.00,12.49
3902.64,12.58
3941.66,12.67
3981.08,12.76
4020.89,12.86
4061.10,12.95
4101.71,13.05
4142.73,13.14
4184.15,13.24
4226.00,13.35
4268.26,13.46
4310.94,13.57
4354.05,13.71
4397.59,13.87
4441.56,14.03
4485.98,14.24
4530.84,14.46
4576.15,14.72
4621.91,14.99
4668.13,15.29
4714.81,15.61
4761.96,15.92
4809.58,16.24
4857.67,16.53
4906.25,16.77
4955.31,16.97
5004.87,17.09
5054.91,17.08
5105.46,17.00
5156.52,16.81
5208.08,16.47
5260.16,16.02
5312.77,15.51
5365.89,14.93
5419.55,14.32
5473.75,13.71
5528.49,13.12
5583.77,12.58
5639.61,12.10
5696.00,11.65
5752.96,11.28
5810.49,10.94
5868.60,10.64
5927.28,10.37
5986.56,10.12
6046.42,9.90
6106.89,9.70
6167.96,9.51
6229.64,9.34
6291.93,9.19
6354.85,9.06
6418.40,8.95
6482.58,8.86
6547.41,8.80
6612.88,8.76
6679.01,8.75
6745.80,8.76
6813.26,8.79
6881.39,8.84
6950.21,8.93
7019.71,9.05
7089.91,9.22
7160.81,9.45
7232.41,9.72
7304.74,10.04
7377.79,10.43
7451.56,10.87
7526.08,11.33
7601.34,11.81
7677.35,12.27
7754.13,12.72
7831.67,13.05
7909.98,13.30
7989.08,13.43
8068.98,13.35
8149.67,13.15
8231.16,12.78
8313.47,12.24
8396.61,11.62
8480.57,10.87
8565.38,10.06
8651.03,9.22
8737.54,8.37
8824.92,7.53
8913.17,6.72
9002.30,5.93
9092.32,5.18
9183.25,4.46
9275.08,3.77
9367.83,3.12
9461.51,2.50
9556.12,1.92
9651.68,1.38
9748.20,0.87
9845.68,0.42
9944.14,-0.01
10043.58,-0.39
10144.02,-0.76
10245.46,-1.07
10347.91,-1.36
10451.39,-1.63
10555.91,-1.85
10661.46,-2.05
10768.08,-2.22
10875.76,-2.35
10984.52,-2.43
11094.36,-2.49
11205.31,-2.51
11317.36,-2.47
11430.53,-2.41
11544.84,-2.29
11660.29,-2.11
11776.89,-1.90
11894.66,-1.57
12013.60,-1.22
12133.74,-0.79
12255.08,-0.26
12377.63,0.34
12501.41,0.99
12626.42,1.73
12752.68,2.51
12880.21,3.31
13009.01,4.10
13139.10,4.90
13270.49,5.55
13403.20,6.13
13537.23,6.42
13672.60,6.52
13809.33,6.42
13947.42,5.97
14086.90,5.32
14227.77,4.53
14370.04,3.68
14513.74,2.77
14658.88,1.91
14805.47,1.10
14953.52,0.39
15103.06,-0.19
15254.09,-0.71
15406.63,-1.06
15560.70,-1.33
15716.30,-1.49
15873.47,-1.47
16032.20,-1.36
16192.52,-1.06
16354.45,-0.70
16517.99,-0.31
16683.17,0.00
16850.01,0.17
17018.51,0.21
17188.69,-0.05
17360.58,-0.53
17534.18,-1.19
17709.53,-2.04
17886.62,-3.01
18065.49,-4.02
18246.14,-5.05
18428.60,-6.03
18612.89,-6.97
18799.02,-7.85
18987.01,-8.67
19176.88,-9.42
19368.65,-10.12
19562.33,-10.76
19757.96,-11.31
19955.54,-11.64
