frequency,raw
20.00,8.28
20.20,8.47
20.40,8.66
20.61,8.85
20.81,9.09
21.02,9.33
21.23,9.57
21.44,9.80
21.66,10.02
21.87,10.22
22.09,10.39
22.31,10.55
22.54,10.68
22.76,10.79
22.99,10.87
23.22,10.91
23.45,10.93
23.69,10.92
23.92,10.87
24.16,10.80
24.40,10.70
24.65,10.57
24.89,10.41
25.14,10.22
25.39,10.02
25.65,9.78
25.91,9.53
26.16,9.27
26.43,8.99
26.69,8.70
26.96,8.41
27.23,8.12
27.50,7.83
27.77,7.56
28.05,7.30
28.33,7.07
28.62,6.84
28.90,6.64
29.19,6.46
29.48,6.29
29.78,6.14
30.08,6.00
30.38,5.87
30.68,5.75
30.99,5.65
31.30,5.56
31.61,5.47
31.93,5.40
32.24,5.35
32.57,5.31
32.89,5.28
33.22,5.27
33.55,5.26
33.89,5.27
34.23,5.28
34.57,5.29
34.92,5.31
35.27,5.33
35.62,5.35
35.97,5.38
36.33,5.42
36.70,5.46
37.06,5.51
37.43,5.56
37.81,5.61
38.19,5.66
38.57,5.72
38.95,5.77
39.34,5.82
39.74,5.88
40.14,5.93
40.54,5.99
40.94,6.05
41.35,6.11
41.76,6.17
42.18,6.23
42.60,6.28
43.03,6.34
43.46,6.40
43.90,6.46
44.33,6.51
44.78,6.57
45.23,6.63
45.68,6.68
46.13,6.74
46.60,6.79
47.06,6.85
47.53,6.90
48.01,6.94
48.49,6.99
48.97,7.04
49.46,7.08
49.96,7.13
50.46,7.17
50.96,7.22
51.47,7.26
51.99,7.30
52.51,7.34
53.03,7.38
53.56,7.42
54.10,7.46
54.64,7.49
55.18,7.53
55.74,7.56
56.29,7.59
56.86,7.63
57.42,7.66
58.00,7.69
58.58,7.72
59.16,7.74
59.76,7.77
60.35,7.80
60.96,7.84
61.57,7.87
62.18,7.90
62.80,7.93
63.43,7.96
64.07,7.99
64.71,8.02
65.35,8.05
66.01,8.09
66.67,8.12
67.33,8.15
68.01,8.18
68.69,8.21
69.37,8.24
70.07,8.27
70.77,8.30
71.48,8.33
72.19,8.36
72.91,8.39
73.64,8.42
74.38,8.46
75.12,8.49
75.87,8.53
76.63,8.57
77.40,8.61
78.17,8.65
78.95,8.69
79.74,8.74
80.54,8.78
81.35,8.82
82.16,8.85
82.98,8.89
83.81,8.92
84.65,8.95
85.50,8.97
86.35,8.99
87.22,9.00
88.09,9.00
88.97,8.99
89.86,8.97
90.76,8.93
91.66,8.89
92.58,8.84
93.51,8.77
94.44,8.69
95.39,8.61
96.34,8.51
97.30,8.42
98.28,8.31
99.26,8.21
100.25,8.11
101.25,8.00
102.27,7.89
103.29,7.79
104.32,7.68
105.37,7.57
106.42,7.47
107.48,7.37
108.56,7.27
109.64,7.17
110.74,7.07
111.85,6.97
112.97,6.87
114.10,6.77
115.24,6.66
116.39,6.56
117.55,6.45
118.73,6.35
119.92,6.24
121.12,6.14
122.33,6.04
123.55,5.93
124.79,5.83
126.03,5.72
127.29,5.61
128.57,5.50
129.85,5.38
131.15,5.27
132.46,5.16
133.79,5.04
135.12,4.93
136.48,4.81
137.84,4.69
139.22,4.58
140.61,4.45
142.02,4.33
143.44,4.21
144.87,4.09
146.32,3.96
147.78,3.83
149.26,3.71
150.75,3.58
152.26,3.45
153.78,3.32
155.32,3.19
156.88,3.06
158.44,2.93
160.03,2.81
161.63,2.69
163.24,2.57
164.88,2.45
166.53,2.33
168.19,2.21
169.87,2.09
171.57,1.97
173.29,1.85
175.02,1.73
176.77,1.62
178.54,1.51
180.32,1.40
182.13,1.30
183.95,1.21
185.79,1.13
187.65,1.05
189.52,0.97
191.42,0.91
193.33,0.85
195.27,0.79
197.22,0.74
199.19,0.69
201.18,0.64
203.19,0.60
205.23,0.57
207.28,0.55
209.35,0.53
211.44,0.51
213.56,0.50
215.69,0.49
217.85,0.49
220.03,0.49
222.23,0.49
224.45,0.50
226.70,0.50
228.96,0.51
231.25,0.52
233.57,0.53
235.90,0.55
238.26,0.56
240.64,0.58
243.05,0.59
245.48,0.61
247.93,0.62
250.41,0.64
252.92,0.65
255.45,0.67
258.00,0.68
260.58,0.70
263.19,0.72
265.82,0.74
268.48,0.76
271.16,0.78
273.87,0.80
276.61,0.82
279.38,0.84
282.17,0.86
284.99,0.87
287.84,0.89
290.72,0.91
293.63,0.92
296.57,0.93
299.53,0.94
302.53,0.95
305.55,0.96
308.61,0.97
311.69,0.99
314.81,1.00
317.96,1.01
321.14,1.02
324.35,1.03
327.59,1.04
330.87,1.05
334.18,1.05
337.52,1.05
340.90,1.05
344.30,1.05
347.75,1.05
351.23,1.06
354.74,1.06
358.28,1.07
361.87,1.07
365.49,1.08
369.14,1.09
372.83,1.09
376.56,1.09
380.33,1.08
384.13,1.08
387.97,1.07
391.85,1.06
395.77,1.05
399.73,1.04
403.72,1.04
407.76,1.03
411.84,1.02
415.96,1.01
420.12,1.00
424.32,0.99
428.56,0.99
432.85,0.98
437.18,0.97
441.55,0.97
445.96,0.96
450.42,0.95
454.93,0.94
459.48,0.93
464.07,0.92
468.71,0.91
473.40,0.89
478.13,0.88
482.91,0.86
487.74,0.85
492.62,0.83
497.55,0.82
502.52,0.80
507.55,0.79
512.62,0.77
517.75,0.76
522.93,0.75
528.16,0.74
533.44,0.73
538.77,0.71
544.16,0.69
549.60,0.67
555.10,0.65
560.65,0.63
566.25,0.61
571.92,0.59
577.64,0.57
583.41,0.55
589.25,0.52
595.14,0.50
601.09,0.48
607.10,0.45
613.17,0.43
619.30,0.40
625.50,0.37
631.75,0.34
638.07,0.30
644.45,0.27
650.89,0.24
657.40,0.21
663.98,0.19
670.62,0.16
677.32,0.14
684.10,0.12
690.94,0.10
697.85,0.08
704.83,0.07
711.87,0.05
718.99,0.02
726.18,0.00
733.44,-0.02
740.78,-0.04
748.19,-0.06
755.67,-0.08
763.23,-0.10
770.86,-0.11
778.57,-0.13
786.35,-0.14
794.22,-0.15
802.16,-0.15
810.18,-0.16
818.28,-0.17
826.46,-0.19
834.73,-0.23
843.08,-0.26
851.51,-0.29
860.02,-0.30
868.62,-0.30
877.31,-0.29
886.08,-0.27
894.94,-0.26
903.89,-0.24
912.93,-0.23
922.06,-0.21
931.28,-0.19
940.59,-0.17
950.00,-0.15
959.50,-0.12
969.09,-0.09
978.78,-0.07
988.57,-0.04
998.46,-0.01
1008.44,0.03
1018.53,0.07
1028.71,0.11
1039.00,0.15
1049.39,0.19
1059.88,0.23
1070.48,0.27
1081.19,0.32
1092.00,0.37
1102.92,0.42
1113.95,0.47
1125.09,0.52
1136.34,0.56
1147.70,0.61
1159.18,0.65
1170.77,0.69
1182.48,0.74
1194.30,0.77
1206.25,0.81
1218.31,0.84
1230.49,0.87
1242.80,0.89
1255.22,0.91
1267.78,0.93
1280.45,0.94
1293.26,0.96
1306.19,0.97
1319.25,0.98
1332.45,0.98
1345.77,0.98
1359.23,0.98
1372.82,0.98
1386.55,0.97
1400.41,0.97
1414.42,0.95
1428.56,0.94
1442.85,0.92
1457.28,0.91
1471.85,0.89
1486.57,0.88
1501.43,0.87
1516.45,0.87
1531.61,0.86
1546.93,0.86
1562.40,0.86
1578.02,0.87
1593.80,0.88
1609.74,0.89
1625.84,0.91
1642.10,0.93
1658.52,0.96
1675.10,0.99
1691.85,1.03
1708.77,1.08
1725.86,1.14
1743.12,1.22
1760.55,1.31
1778.15,1.41
1795.94,1.52
1813.90,1.64
1832.03,1.78
1850.36,1.92
1868.86,2.08
1887.55,2.24
1906.42,2.40
1925.49,2.57
1944.74,2.75
1964.19,2.93
1983.83,3.11
2003.67,3.29
2023.71,3.47
2043.94,3.66
2064.38,3.83
2085.03,4.01
2105.88,4.19
2126.94,4.38
2148.20,4.57
2169.69,4.76
2191.38,4.95
2213.30,5.14
2235.43,5.34
2257.78,5.53
2280.36,5.73
2303.17,5.94
2326.20,6.14
2349.46,6.35
2372.95,6.56
2396.68,6.76
2420.65,6.97
2444.86,7.18
2469.31,7.38
2494.00,7.58
2518.94,7.78
2544.13,7.98
2569.57,8.18
2595.27,8.36
2621.22,8.55
2647.43,8.72
2673.90,8.88
2700.64,9.04
2727.65,9.18
2754.93,9.32
2782.48,9.45
2810.30,9.56
2838.40,9.65
2866.79,9.71
2895.46,9.76
2924.41,9.80
2953.65,9.84
2983.19,9.93
3013.02,10.03
3043.15,10.13
3073.58,10.19
3104.32,10.23
3135.36,10.24
3166.72,10.23
3198.38,10.20
3230.37,10.15
3262.67,10.10
3295.30,10.06
3328.25,10.05
3361.53,10.05
3395.15,10.06
3429.10,10.04
3463.39,10.01
3498.03,9.96
3533.01,9.90
3568.34,9.84
3604.02,9.78
3640.06,9.72
3676.46,9.66
3713.22,9.61
3750.36,9.56
3787.86,9.52
3825.74,9.47
3864.00,9.44
3902.64,9.41
3941.66,9.37
3981.08,9.35
4020.89,9.34
4061.10,9.33
4101.71,9.34
4142.73,9.36
4184.15,9.38
4226.00,9.42
4268.26,9.46
4310.94,9.50
4354.05,9.54
4397.59,9.56
4441.56,9.58
4485.98,9.57
4530.84,9.54
4576.15,9.48
4621.91,9.40
4668.13,9.29
4714.81,9.17
4761.96,9.04
4809.58,8.93
4857.67,8.85
4906.25,8.81
4955.31,8.82
5004.87,8.88
5054.91,9.02
5105.46,9.18
5156.52,9.37
5208.08,9.58
5260.16,9.79
5312.77,9.99
5365.89,10.15
5419.55,10.29
5473.75,10.39
5528.49,10.45
5583.77,10.47
5639.61,10.43
5696.00,10.36
5752.96,10.23
5810.49,10.09
5868.60,9.89
5927.28,9.68
5986.56,9.44
6046.42,9.17
6106.89,8.90
6167.96,8.61
6229.64,8.32
6291.93,8.03
6354.85,7.73
6418.40,7.44
6482.58,7.14
6547.41,6.86
6612.88,6.57
6679.01,6.30
6745.80,6.03
6813.26,5.78
6881.39,5.54
6950.21,5.33
7019.71,5.14
7089.91,4.97
7160.81,4.82
7232.41,4.68
7304.74,4.56
7377.79,4.46
7451.56,4.36
7526.08,4.28
7601.34,4.21
7677.35,4.17
7754.13,4.13
7831.67,4.14
7909.98,4.17
7989.08,4.25
8068.98,4.40
8149.67,4.61
8231.16,4.90
8313.47,5.26
8396.61,5.67
8480.57,6.12
8565.38,6.56
8651.03,6.96
8737.54,7.30
8824.92,7.54
8913.17,7.64
9002.30,7.71
9092.32,7.62
9183.25,7.44
9275.08,7.19
9367.83,6.86
9461.51,6.47
9556.12,6.06
9651.68,5.64
9748.20,5.24
9845.68,4.90
9944.14,4.61
10043.58,4.37
10144.02,4.18
10245.46,4.07
10347.91,4.01
10451.39,4.01
10555.91,4.12
10661.46,4.30
10768.08,4.55
10875.76,4.91
10984.52,5.36
11094.36,5.83
11205.31,6.32
11317.36,6.70
11430.53,6.93
11544.84,6.79
11660.29,6.30
11776.89,5.57
11894.66,4.48
12013.60,3.36
12133.74,2.52
12255.08,1.98
12377.63,1.56
12501.41,1.07
12626.42,0.38
12752.68,-0.45
12880.21,-1.39
13009.01,-2.39
13139.10,-3.38
13270.49,-4.38
13403.20,-5.38
13537.23,-6.32
13672.60,-7.21
13809.33,-8.03
13947.42,-8.69
14086.90,-9.27
14227.77,-9.80
14370.04,-10.29
14513.74,-10.74
14658.88,-11.13
14805.47,-11.47
14953.52,-11.75
15103.06,-11.93
15254.09,-12.08
15406.63,-12.09
15560.70,-12.04
15716.30,-11.92
15873.47,-11.74
16032.20,-11.55
16192.52,-11.34
16354.45,-11.17
16517.99,-11.02
16683.17,-10.95
16850.01,-10.96
17018.51,-11.03
17188.69,-11.22
17360.58,-11.49
17534.18,-11.84
17709.53,-12.29
17886.62,-12.81
18065.49,-13.38
18246.14,-13.97
18428.60,-14.55
18612.89,-15.09
18799.02,-15.60
18987.01,-16.06
19176.88,-16.48
19368.65,-16.86
19562.33,-17.19
19757.96,-17.45
19955.54,-17.59
