frequency,raw
20.00,-0.69
20.20,-0.66
20.40,-0.64
20.61,-0.62
20.81,-0.59
21.02,-0.55
21.23,-0.52
21.44,-0.48
21.66,-0.44
21.87,-0.40
22.09,-0.37
22.31,-0.34
22.54,-0.31
22.76,-0.29
22.99,-0.27
23.22,-0.26
23.45,-0.25
23.69,-0.23
23.92,-0.21
24.16,-0.19
24.40,-0.17
24.65,-0.14
24.89,-0.11
25.14,-0.07
25.39,-0.04
25.65,-0.01
25.91,0.03
26.16,0.06
26.43,0.09
26.69,0.12
26.96,0.15
27.23,0.18
27.50,0.21
27.77,0.24
28.05,0.27
28.33,0.30
28.62,0.34
28.90,0.37
29.19,0.41
29.48,0.44
29.78,0.48
30.08,0.51
30.38,0.54
30.68,0.57
30.99,0.60
31.30,0.63
31.61,0.66
31.93,0.69
32.24,0.72
32.57,0.75
32.89,0.77
33.22,0.80
33.55,0.82
33.89,0.85
34.23,0.88
34.57,0.91
34.92,0.93
35.27,0.96
35.62,0.98
35.97,1.00
36.33,1.02
36.70,1.05
37.06,1.06
37.43,1.08
37.81,1.10
38.19,1.12
38.57,1.14
38.95,1.16
39.34,1.18
39.74,1.19
40.14,1.21
40.54,1.22
40.94,1.24
41.35,1.25
41.76,1.26
42.18,1.27
42.60,1.29
43.03,1.31
43.46,1.33
43.90,1.35
44.33,1.37
44.78,1.37
45.23,1.37
45.68,1.37
46.13,1.37
46.60,1.38
47.06,1.38
47.53,1.38
48.01,1.38
48.49,1.37
48.97,1.36
49.46,1.35
49.96,1.35
50.46,1.34
50.96,1.34
51.47,1.34
51.99,1.33
52.51,1.33
53.03,1.32
53.56,1.31
54.10,1.31
54.64,1.30
55.18,1.29
55.74,1.28
56.29,1.27
56.86,1.26
57.42,1.25
58.00,1.23
58.58,1.22
59.16,1.20
59.76,1.19
60.35,1.19
60.96,1.18
61.57,1.17
62.18,1.15
62.80,1.13
63.43,1.12
64.07,1.10
64.71,1.08
65.35,1.07
66.01,1.05
66.67,1.04
67.33,1.02
68.01,1.00
68.69,0.99
69.37,0.97
70.07,0.95
70.77,0.93
71.48,0.91
72.19,0.89
72.91,0.87
73.64,0.85
74.38,0.83
75.12,0.82
75.87,0.80
76.63,0.78
77.40,0.76
78.17,0.75
78.95,0.73
79.74,0.71
80.54,0.70
81.35,0.68
82.16,0.66
82.98,0.64
83.81,0.61
84.65,0.59
85.50,0.57
86.35,0.55
87.22,0.53
88.09,0.51
88.97,0.49
89.86,0.46
90.76,0.44
91.66,0.41
92.58,0.39
93.51,0.36
94.44,0.34
95.39,0.31
96.34,0.29
97.30,0.27
98.28,0.24
99.26,0.22
100.25,0.20
101.25,0.18
102.27,0.15
103.29,0.12
104.32,0.09
105.37,0.06
106.42,0.03
107.48,0.01
108.56,-0.02
109.64,-0.05
110.74,-0.08
111.85,-0.11
112.97,-0.14
114.10,-0.18
115.24,-0.21
116.39,-0.24
117.55,-0.26
118.73,-0.29
119.92,-0.31
121.12,-0.33
122.33,-0.35
123.55,-0.37
124.79,-0.39
126.03,-0.41
127.29,-0.44
128.57,-0.46
129.85,-0.49
131.15,-0.52
132.46,-0.55
133.79,-0.59
135.12,-0.63
136.48,-0.66
137.84,-0.69
139.22,-0.72
140.61,-0.75
142.02,-0.78
143.44,-0.80
144.87,-0.83
146.32,-0.85
147.78,-0.88
149.26,-0.91
150.75,-0.95
152.26,-0.98
153.78,-1.02
155.32,-1.05
156.88,-1.08
158.44,-1.10
160.03,-1.13
161.63,-1.15
163.24,-1.18
164.88,-1.21
166.53,-1.24
168.19,-1.27
169.87,-1.30
171.57,-1.34
173.29,-1.38
175.02,-1.42
176.77,-1.46
178.54,-1.50
180.32,-1.54
182.13,-1.57
183.95,-1.61
185.79,-1.64
187.65,-1.67
189.52,-1.69
191.42,-1.72
193.33,-1.74
195.27,-1.76
197.22,-1.78
199.19,-1.81
201.18,-1.83
203.19,-1.85
205.23,-1.88
207.28,-1.90
209.35,-1.92
211.44,-1.93
213.56,-1.94
215.69,-1.96
217.85,-1.98
220.03,-2.00
222.23,-2.04
224.45,-2.07
226.70,-2.10
228.96,-2.12
231.25,-2.15
233.57,-2.18
235.90,-2.21
238.26,-2.23
240.64,-2.24
243.05,-2.25
245.48,-2.24
247.93,-2.23
250.41,-2.20
252.92,-2.18
255.45,-2.15
258.00,-2.13
260.58,-2.11
263.19,-2.09
265.82,-2.08
268.48,-2.07
271.16,-2.07
273.87,-2.07
276.61,-2.08
279.38,-2.08
282.17,-2.08
284.99,-2.08
287.84,-2.09
290.72,-2.09
293.63,-2.09
296.57,-2.10
299.53,-2.10
302.53,-2.10
305.55,-2.10
308.61,-2.11
311.69,-2.11
314.81,-2.11
317.96,-2.12
321.14,-2.12
324.35,-2.13
327.59,-2.14
330.87,-2.15
334.18,-2.16
337.52,-2.18
340.90,-2.19
344.30,-2.20
347.75,-2.21
351.23,-2.21
354.74,-2.22
358.28,-2.22
361.87,-2.23
365.49,-2.24
369.14,-2.25
372.83,-2.26
376.56,-2.27
380.33,-2.27
384.13,-2.27
387.97,-2.27
391.85,-2.27
395.77,-2.26
399.73,-2.26
403.72,-2.25
407.76,-2.24
411.84,-2.23
415.96,-2.22
420.12,-2.21
424.32,-2.20
428.56,-2.19
432.85,-2.17
437.18,-2.15
441.55,-2.12
445.96,-2.10
450.42,-2.07
454.93,-2.04
459.48,-2.02
464.07,-1.99
468.71,-1.96
473.40,-1.93
478.13,-1.90
482.91,-1.88
487.74,-1.85
492.62,-1.82
497.55,-1.79
502.52,-1.76
507.55,-1.72
512.62,-1.69
517.75,-1.65
522.93,-1.62
528.16,-1.58
533.44,-1.54
538.77,-1.50
544.16,-1.46
549.60,-1.42
555.10,-1.38
560.65,-1.33
566.25,-1.29
571.92,-1.25
577.64,-1.20
583.41,-1.16
589.25,-1.11
595.14,-1.06
601.09,-1.01
607.10,-0.95
613.17,-0.91
619.30,-0.86
625.50,-0.81
631.75,-0.77
638.07,-0.72
644.45,-0.67
650.89,-0.62
657.40,-0.58
663.98,-0.53
670.62,-0.48
677.32,-0.43
684.10,-0.38
690.94,-0.34
697.85,-0.29
704.83,-0.24
711.87,-0.19
718.99,-0.14
726.18,-0.10
733.44,-0.06
740.78,-0.03
748.19,0.00
755.67,0.02
763.23,0.04
770.86,0.06
778.57,0.07
786.35,0.08
794.22,0.09
802.16,0.09
810.18,0.10
818.28,0.10
826.46,0.11
834.73,0.12
843.08,0.12
851.51,0.12
860.02,0.12
868.62,0.11
877.31,0.10
886.08,0.09
894.94,0.08
903.89,0.07
912.93,0.05
922.06,0.04
931.28,0.03
940.59,0.03
950.00,0.02
959.50,0.02
969.09,0.01
978.78,0.01
988.57,0.01
998.46,0.00
1008.44,-0.00
1018.53,-0.00
1028.71,0.00
1039.00,0.01
1049.39,0.03
1059.88,0.04
1070.48,0.05
1081.19,0.05
1092.00,0.06
1102.92,0.07
1113.95,0.09
1125.09,0.10
1136.34,0.12
1147.70,0.14
1159.18,0.16
1170.77,0.18
1182.48,0.21
1194.30,0.23
1206.25,0.26
1218.31,0.29
1230.49,0.31
1242.80,0.34
1255.22,0.36
1267.78,0.39
1280.45,0.42
1293.26,0.45
1306.19,0.49
1319.25,0.52
1332.45,0.55
1345.77,0.58
1359.23,0.61
1372.82,0.63
1386.55,0.66
1400.41,0.70
1414.42,0.75
1428.56,0.79
1442.85,0.85
1457.28,0.90
1471.85,0.96
1486.57,1.02
1501.43,1.07
1516.45,1.13
1531.61,1.19
1546.93,1.27
1562.40,1.35
1578.02,1.43
1593.80,1.52
1609.74,1.61
1625.84,1.70
1642.10,1.80
1658.52,1.90
1675.10,1.99
1691.85,2.09
1708.77,2.18
1725.86,2.26
1743.12,2.35
1760.55,2.44
1778.15,2.52
1795.94,2.61
1813.90,2.68
1832.03,2.75
1850.36,2.82
1868.86,2.88
1887.55,2.94
1906.42,2.99
1925.49,3.04
1944.74,3.08
1964.19,3.12
1983.83,3.17
2003.67,3.20
2023.71,3.24
2043.94,3.28
2064.38,3.33
2085.03,3.37
2105.88,3.43
2126.94,3.48
2148.20,3.55
2169.69,3.62
2191.38,3.69
2213.30,3.78
2235.43,3.87
2257.78,3.97
2280.36,4.07
2303.17,4.18
2326.20,4.30
2349.46,4.42
2372.95,4.55
2396.68,4.68
2420.65,4.81
2444.86,4.95
2469.31,5.09
2494.00,5.24
2518.94,5.39
2544.13,5.54
2569.57,5.69
2595.27,5.85
2621.22,6.01
2647.43,6.16
2673.90,6.32
2700.64,6.47
2727.65,6.61
2754.93,6.76
2782.48,6.89
2810.30,7.01
2838.40,7.11
2866.79,7.21
2895.46,7.31
2924.41,7.38
2953.65,7.46
2983.19,7.51
3013.02,7.56
3043.15,7.60
3073.58,7.63
3104.32,7.66
3135.36,7.67
3166.72,7.66
3198.38,7.65
3230.37,7.62
3262.67,7.58
3295.30,7.54
3328.25,7.50
3361.53,7.46
3395.15,7.42
3429.10,7.38
3463.39,7.33
3498.03,7.29
3533.01,7.25
3568.34,7.21
3604.02,7.17
3640.06,7.13
3676.46,7.09
3713.22,7.06
3750.36,7.03
3787.86,6.99
3825.74,6.96
3864.00,6.93
3902.64,6.89
3941.66,6.86
3981.08,6.83
4020.89,6.80
4061.10,6.77
4101.71,6.74
4142.73,6.71
4184.15,6.69
4226.00,6.67
4268.26,6.64
4310.94,6.62
4354.05,6.59
4397.59,6.56
4441.56,6.52
4485.98,6.46
4530.84,6.39
4576.15,6.30
4621.91,6.19
4668.13,6.05
4714.81,5.88
4761.96,5.68
4809.58,5.45
4857.67,5.20
4906.25,4.91
4955.31,4.61
5004.87,4.30
5054.91,4.00
5105.46,3.70
5156.52,3.42
5208.08,3.19
5260.16,3.01
5312.77,2.88
5365.89,2.81
5419.55,2.81
5473.75,2.88
5528.49,3.00
5583.77,3.18
5639.61,3.40
5696.00,3.62
5752.96,3.84
5810.49,4.05
5868.60,4.20
5927.28,4.32
5986.56,4.38
6046.42,4.40
6106.89,4.38
6167.96,4.35
6229.64,4.30
6291.93,4.25
6354.85,4.20
6418.40,4.16
6482.58,4.13
6547.41,4.12
6612.88,4.12
6679.01,4.15
6745.80,4.20
6813.26,4.26
6881.39,4.36
6950.21,4.48
7019.71,4.63
7089.91,4.80
7160.81,5.02
7232.41,5.26
7304.74,5.53
7377.79,5.83
7451.56,6.14
7526.08,6.45
7601.34,6.75
7677.35,6.99
7754.13,7.21
7831.67,7.29
7909.98,7.27
7989.08,7.11
8068.98,6.73
8149.67,6.20
8231.16,5.51
8313.47,4.64
8396.61,3.70
8480.57,2.71
8565.38,1.76
8651.03,0.89
8737.54,0.12
8824.92,-0.52
8913.17,-1.07
9002.30,-1.58
9092.32,-2.04
9183.25,-2.50
9275.08,-2.95
9367.83,-3.41
9461.51,-3.87
9556.12,-4.32
9651.68,-4.76
9748.20,-5.18
9845.68,-5.57
9944.14,-5.93
10043.58,-6.25
10144.02,-6.55
10245.46,-6.80
10347.91,-7.04
10451.39,-7.25
10555.91,-7.43
10661.46,-7.58
10768.08,-7.70
10875.76,-7.78
10984.52,-7.82
11094.36,-7.82
11205.31,-7.78
11317.36,-7.68
11430.53,-7.54
11544.84,-7.35
11660.29,-7.11
11776.89,-6.83
11894.66,-6.44
12013.60,-6.02
12133.74,-5.52
12255.08,-4.90
12377.63,-4.22
12501.41,-3.45
12626.42,-2.62
12752.68,-1.80
12880.21,-1.13
13009.01,-0.57
13139.10,-0.01
13270.49,0.03
13403.20,-0.13
13537.23,-0.78
13672.60,-1.65
13809.33,-2.73
13947.42,-4.04
14086.90,-5.37
14227.77,-6.73
14370.04,-7.98
14513.74,-9.11
14658.88,-9.92
14805.47,-10.56
14953.52,-10.92
15103.06,-10.96
15254.09,-10.84
15406.63,-10.32
15560.70,-9.70
15716.30,-8.92
15873.47,-8.06
16032.20,-7.19
16192.52,-6.38
16354.45,-5.70
16517.99,-5.14
16683.17,-4.84
16850.01,-4.72
17018.51,-4.74
17188.69,-4.92
17360.58,-5.12
17534.18,-5.31
17709.53,-5.43
17886.62,-5.42
18065.49,-5.30
18246.14,-5.07
18428.60,-4.67
18612.89,-4.16
18799.02,-3.57
18987.01,-2.90
19176.88,-2.21
19368.65,-1.56
19562.33,-0.97
19757.96,-0.50
19955.54,-0.24
