frequency,raw
20.00,1.02
20.20,1.04
20.40,1.06
20.61,1.08
20.81,1.10
21.02,1.12
21.23,1.13
21.44,1.15
21.66,1.16
21.87,1.16
22.09,1.17
22.31,1.18
22.54,1.19
22.76,1.20
22.99,1.22
23.22,1.23
23.45,1.25
23.69,1.27
23.92,1.29
24.16,1.31
24.40,1.33
24.65,1.36
24.89,1.39
25.14,1.42
25.39,1.46
25.65,1.49
25.91,1.51
26.16,1.53
26.43,1.54
26.69,1.55
26.96,1.56
27.23,1.57
27.50,1.59
27.77,1.62
28.05,1.65
28.33,1.69
28.62,1.71
28.90,1.74
29.19,1.75
29.48,1.77
29.78,1.78
30.08,1.79
30.38,1.81
30.68,1.82
30.99,1.84
31.30,1.86
31.61,1.88
31.93,1.91
32.24,1.94
32.57,1.97
32.89,2.01
33.22,2.04
33.55,2.08
33.89,2.11
34.23,2.13
34.57,2.16
34.92,2.18
35.27,2.21
35.62,2.23
35.97,2.26
36.33,2.29
36.70,2.32
37.06,2.35
37.43,2.37
37.81,2.39
38.19,2.41
38.57,2.43
38.95,2.45
39.34,2.46
39.74,2.48
40.14,2.50
40.54,2.52
40.94,2.54
41.35,2.56
41.76,2.58
42.18,2.62
42.60,2.65
43.03,2.69
43.46,2.71
43.90,2.74
44.33,2.75
44.78,2.77
45.23,2.79
45.68,2.82
46.13,2.85
46.60,2.88
47.06,2.91
47.53,2.93
48.01,2.96
48.49,2.99
48.97,3.02
49.46,3.05
49.96,3.08
50.46,3.09
50.96,3.11
51.47,3.12
51.99,3.13
52.51,3.14
53.03,3.15
53.56,3.16
54.10,3.18
54.64,3.19
55.18,3.21
55.74,3.22
56.29,3.22
56.86,3.23
57.42,3.24
58.00,3.25
58.58,3.25
59.16,3.26
59.76,3.26
60.35,3.27
60.96,3.27
61.57,3.27
62.18,3.27
62.80,3.27
63.43,3.27
64.07,3.27
64.71,3.27
65.35,3.27
66.01,3.27
66.67,3.26
67.33,3.25
68.01,3.24
68.69,3.23
69.37,3.22
70.07,3.21
70.77,3.19
71.48,3.18
72.19,3.16
72.91,3.14
73.64,3.13
74.38,3.11
75.12,3.08
75.87,3.05
76.63,3.02
77.40,2.98
78.17,2.95
78.95,2.91
79.74,2.86
80.54,2.82
81.35,2.77
82.16,2.72
82.98,2.66
83.81,2.61
84.65,2.54
85.50,2.48
86.35,2.40
87.22,2.33
88.09,2.25
88.97,2.18
89.86,2.10
90.76,2.02
91.66,1.95
92.58,1.87
93.51,1.80
94.44,1.73
95.39,1.65
96.34,1.58
97.30,1.51
98.28,1.43
99.26,1.35
100.25,1.27
101.25,1.20
102.27,1.12
103.29,1.05
104.32,0.98
105.37,0.90
106.42,0.83
107.48,0.75
108.56,0.68
109.64,0.61
110.74,0.54
111.85,0.48
112.97,0.41
114.10,0.35
115.24,0.28
116.39,0.22
117.55,0.15
118.73,0.08
119.92,0.00
121.12,-0.07
122.33,-0.14
123.55,-0.21
124.79,-0.28
126.03,-0.35
127.29,-0.42
128.57,-0.50
129.85,-0.57
131.15,-0.64
132.46,-0.71
133.79,-0.78
135.12,-0.85
136.48,-0.93
137.84,-1.00
139.22,-1.08
140.61,-1.15
142.02,-1.22
143.44,-1.29
144.87,-1.35
146.32,-1.42
147.78,-1.48
149.26,-1.53
150.75,-1.58
152.26,-1.63
153.78,-1.69
155.32,-1.74
156.88,-1.79
158.44,-1.84
160.03,-1.89
161.63,-1.93
163.24,-1.97
164.88,-2.01
166.53,-2.04
168.19,-2.06
169.87,-2.08
171.57,-2.10
173.29,-2.12
175.02,-2.13
176.77,-2.13
178.54,-2.12
180.32,-2.11
182.13,-2.11
183.95,-2.10
185.79,-2.10
187.65,-2.10
189.52,-2.11
191.42,-2.12
193.33,-2.12
195.27,-2.13
197.22,-2.12
199.19,-2.10
201.18,-2.07
203.19,-2.03
205.23,-1.98
207.28,-1.93
209.35,-1.88
211.44,-1.83
213.56,-1.79
215.69,-1.75
217.85,-1.72
220.03,-1.68
222.23,-1.65
224.45,-1.62
226.70,-1.60
228.96,-1.57
231.25,-1.55
233.57,-1.53
235.90,-1.51
238.26,-1.48
240.64,-1.46
243.05,-1.44
245.48,-1.42
247.93,-1.40
250.41,-1.39
252.92,-1.37
255.45,-1.35
258.00,-1.32
260.58,-1.30
263.19,-1.28
265.82,-1.27
268.48,-1.26
271.16,-1.25
273.87,-1.24
276.61,-1.23
279.38,-1.22
282.17,-1.22
284.99,-1.22
287.84,-1.21
290.72,-1.21
293.63,-1.20
296.57,-1.20
299.53,-1.20
302.53,-1.20
305.55,-1.20
308.61,-1.20
311.69,-1.21
314.81,-1.21
317.96,-1.22
321.14,-1.23
324.35,-1.24
327.59,-1.24
330.87,-1.25
334.18,-1.25
337.52,-1.25
340.90,-1.26
344.30,-1.27
347.75,-1.27
351.23,-1.29
354.74,-1.30
358.28,-1.32
361.87,-1.33
365.49,-1.35
369.14,-1.36
372.83,-1.37
376.56,-1.38
380.33,-1.39
384.13,-1.40
387.97,-1.42
391.85,-1.43
395.77,-1.44
399.73,-1.45
403.72,-1.46
407.76,-1.47
411.84,-1.47
415.96,-1.48
420.12,-1.49
424.32,-1.51
428.56,-1.52
432.85,-1.53
437.18,-1.54
441.55,-1.55
445.96,-1.56
450.42,-1.57
454.93,-1.58
459.48,-1.58
464.07,-1.59
468.71,-1.59
473.40,-1.59
478.13,-1.59
482.91,-1.59
487.74,-1.59
492.62,-1.58
497.55,-1.57
502.52,-1.56
507.55,-1.55
512.62,-1.53
517.75,-1.52
522.93,-1.51
528.16,-1.49
533.44,-1.48
538.77,-1.46
544.16,-1.44
549.60,-1.41
555.10,-1.39
560.65,-1.36
566.25,-1.33
571.92,-1.29
577.64,-1.26
583.41,-1.23
589.25,-1.20
595.14,-1.17
601.09,-1.13
607.10,-1.10
613.17,-1.07
619.30,-1.04
625.50,-1.01
631.75,-0.98
638.07,-0.95
644.45,-0.92
650.89,-0.89
657.40,-0.86
663.98,-0.83
670.62,-0.80
677.32,-0.76
684.10,-0.72
690.94,-0.68
697.85,-0.63
704.83,-0.59
711.87,-0.54
718.99,-0.50
726.18,-0.47
733.44,-0.43
740.78,-0.40
748.19,-0.36
755.67,-0.33
763.23,-0.29
770.86,-0.25
778.57,-0.21
786.35,-0.17
794.22,-0.13
802.16,-0.08
810.18,-0.03
818.28,0.02
826.46,0.07
834.73,0.11
843.08,0.14
851.51,0.17
860.02,0.20
868.62,0.22
877.31,0.24
886.08,0.25
894.94,0.26
903.89,0.27
912.93,0.27
922.06,0.26
931.28,0.25
940.59,0.23
950.00,0.20
959.50,0.16
969.09,0.13
978.78,0.09
988.57,0.05
998.46,0.01
1008.44,-0.04
1018.53,-0.10
1028.71,-0.16
1039.00,-0.23
1049.39,-0.30
1059.88,-0.38
1070.48,-0.45
1081.19,-0.53
1092.00,-0.60
1102.92,-0.67
1113.95,-0.74
1125.09,-0.81
1136.34,-0.87
1147.70,-0.92
1159.18,-0.95
1170.77,-0.98
1182.48,-1.00
1194.30,-1.01
1206.25,-1.01
1218.31,-1.00
1230.49,-0.97
1242.80,-0.94
1255.22,-0.89
1267.78,-0.82
1280.45,-0.75
1293.26,-0.67
1306.19,-0.59
1319.25,-0.51
1332.45,-0.45
1345.77,-0.40
1359.23,-0.36
1372.82,-0.34
1386.55,-0.33
1400.41,-0.31
1414.42,-0.27
1428.56,-0.24
1442.85,-0.17
1457.28,-0.09
1471.85,0.00
1486.57,0.11
1501.43,0.23
1516.45,0.36
1531.61,0.48
1546.93,0.62
1562.40,0.75
1578.02,0.88
1593.80,1.02
1609.74,1.15
1625.84,1.28
1642.10,1.42
1658.52,1.56
1675.10,1.69
1691.85,1.83
1708.77,1.96
1725.86,2.10
1743.12,2.23
1760.55,2.37
1778.15,2.51
1795.94,2.65
1813.90,2.79
1832.03,2.94
1850.36,3.09
1868.86,3.24
1887.55,3.39
1906.42,3.55
1925.49,3.71
1944.74,3.88
1964.19,4.05
1983.83,4.22
2003.67,4.40
2023.71,4.58
2043.94,4.77
2064.38,4.96
2085.03,5.16
2105.88,5.34
2126.94,5.51
2148.20,5.68
2169.69,5.83
2191.38,5.97
2213.30,6.10
2235.43,6.21
2257.78,6.31
2280.36,6.39
2303.17,6.46
2326.20,6.50
2349.46,6.53
2372.95,6.53
2396.68,6.52
2420.65,6.49
2444.86,6.44
2469.31,6.37
2494.00,6.29
2518.94,6.18
2544.13,6.08
2569.57,5.96
2595.27,5.83
2621.22,5.70
2647.43,5.57
2673.90,5.42
2700.64,5.28
2727.65,5.12
2754.93,4.96
2782.48,4.80
2810.30,4.63
2838.40,4.45
2866.79,4.28
2895.46,4.10
2924.41,3.92
2953.65,3.75
2983.19,3.57
3013.02,3.40
3043.15,3.23
3073.58,3.06
3104.32,2.90
3135.36,2.75
3166.72,2.60
3198.38,2.46
3230.37,2.33
3262.67,2.21
3295.30,2.09
3328.25,1.97
3361.53,1.86
3395.15,1.76
3429.10,1.68
3463.39,1.60
3498.03,1.52
3533.01,1.47
3568.34,1.42
3604.02,1.38
3640.06,1.36
3676.46,1.35
3713.22,1.35
3750.36,1.37
3787.86,1.42
3825.74,1.48
3864.00,1.57
3902.64,1.70
3941.66,1.83
3981.08,1.98
4020.89,2.13
4061.10,2.28
4101.71,2.41
4142.73,2.54
4184.15,2.66
4226.00,2.76
4268.26,2.86
4310.94,2.95
4354.05,3.02
4397.59,3.08
4441.56,3.13
4485.98,3.15
4530.84,3.16
4576.15,3.13
4621.91,3.09
4668.13,3.01
4714.81,2.89
4761.96,2.75
4809.58,2.58
4857.67,2.37
4906.25,2.13
4955.31,1.87
5004.87,1.59
5054.91,1.31
5105.46,1.02
5156.52,0.72
5208.08,0.43
5260.16,0.13
5312.77,-0.15
5365.89,-0.44
5419.55,-0.71
5473.75,-0.97
5528.49,-1.22
5583.77,-1.45
5639.61,-1.66
5696.00,-1.86
5752.96,-2.03
5810.49,-2.19
5868.60,-2.31
5927.28,-2.42
5986.56,-2.50
6046.42,-2.56
6106.89,-2.60
6167.96,-2.63
6229.64,-2.64
6291.93,-2.63
6354.85,-2.60
6418.40,-2.55
6482.58,-2.48
6547.41,-2.38
6612.88,-2.25
6679.01,-2.09
6745.80,-1.89
6813.26,-1.66
6881.39,-1.38
6950.21,-1.06
7019.71,-0.69
7089.91,-0.28
7160.81,0.21
7232.41,0.73
7304.74,1.30
7377.79,1.91
7451.56,2.53
7526.08,3.12
7601.34,3.68
7677.35,4.09
7754.13,4.44
7831.67,4.51
7909.98,4.45
7989.08,4.18
8068.98,3.65
8149.67,2.98
8231.16,2.15
8313.47,1.19
8396.61,0.18
8480.57,-0.87
8565.38,-1.90
8651.03,-2.89
8737.54,-3.84
8824.92,-4.72
8913.17,-5.52
9002.30,-6.30
9092.32,-6.99
9183.25,-7.63
9275.08,-8.24
9367.83,-8.80
9461.51,-9.30
9556.12,-9.75
9651.68,-10.16
9748.20,-10.52
9845.68,-10.84
9944.14,-11.13
10043.58,-11.37
10144.02,-11.58
10245.46,-11.72
10347.91,-11.84
10451.39,-11.90
10555.91,-11.92
10661.46,-11.90
10768.08,-11.85
10875.76,-11.74
10984.52,-11.58
11094.36,-11.37
11205.31,-11.08
11317.36,-10.68
11430.53,-10.22
11544.84,-9.65
11660.29,-9.00
11776.89,-8.33
11894.66,-7.66
12013.60,-6.99
12133.74,-6.41
12255.08,-5.97
12377.63,-5.62
12501.41,-5.39
12626.42,-5.33
12752.68,-5.37
12880.21,-5.60
13009.01,-5.92
13139.10,-6.23
13270.49,-6.79
13403.20,-7.43
13537.23,-8.21
13672.60,-8.99
13809.33,-9.79
13947.42,-10.52
14086.90,-11.12
14227.77,-11.64
14370.04,-12.05
14513.74,-12.30
14658.88,-12.36
14805.47,-12.34
14953.52,-12.19
15103.06,-11.96
15254.09,-11.68
15406.63,-11.41
15560.70,-11.19
15716.30,-11.08
15873.47,-11.23
16032.20,-11.53
16192.52,-12.19
16354.45,-13.14
16517.99,-14.30
16683.17,-15.80
16850.01,-17.48
17018.51,-19.28
17188.69,-21.20
17360.58,-23.04
17534.18,-24.76
17709.53,-26.15
17886.62,-27.15
18065.49,-27.92
18246.14,-28.48
18428.60,-28.89
18612.89,-29.25
18799.02,-29.57
18987.01,-29.85
19176.88,-30.14
19368.65,-30.44
19562.33,-30.75
19757.96,-31.05
19955.54,-31.24
