frequency,raw
20.00,4.80
20.20,4.81
20.40,4.81
20.61,4.82
20.81,4.83
21.02,4.86
21.23,4.89
21.44,4.92
21.66,4.97
21.87,5.02
22.09,5.07
22.31,5.13
22.54,5.18
22.76,5.23
22.99,5.29
23.22,5.34
23.45,5.40
23.69,5.46
23.92,5.53
24.16,5.60
24.40,5.67
24.65,5.74
24.89,5.81
25.14,5.88
25.39,5.95
25.65,6.02
25.91,6.09
26.16,6.16
26.43,6.23
26.69,6.29
26.96,6.36
27.23,6.43
27.50,6.49
27.77,6.55
28.05,6.62
28.33,6.68
28.62,6.73
28.90,6.79
29.19,6.84
29.48,6.89
29.78,6.94
30.08,6.99
30.38,7.03
30.68,7.08
30.99,7.12
31.30,7.17
31.61,7.21
31.93,7.24
32.24,7.28
32.57,7.32
32.89,7.35
33.22,7.38
33.55,7.41
33.89,7.44
34.23,7.46
34.57,7.48
34.92,7.50
35.27,7.52
35.62,7.54
35.97,7.56
36.33,7.58
36.70,7.59
37.06,7.61
37.43,7.62
37.81,7.63
38.19,7.63
38.57,7.63
38.95,7.64
39.34,7.64
39.74,7.64
40.14,7.65
40.54,7.65
40.94,7.64
41.35,7.64
41.76,7.64
42.18,7.64
42.60,7.63
43.03,7.63
43.46,7.62
43.90,7.61
44.33,7.60
44.78,7.59
45.23,7.57
45.68,7.56
46.13,7.54
46.60,7.52
47.06,7.51
47.53,7.49
48.01,7.48
48.49,7.47
48.97,7.46
49.46,7.45
49.96,7.44
50.46,7.42
50.96,7.40
51.47,7.38
51.99,7.35
52.51,7.33
53.03,7.31
53.56,7.30
54.10,7.28
54.64,7.27
55.18,7.26
55.74,7.26
56.29,7.25
56.86,7.24
57.42,7.23
58.00,7.22
58.58,7.21
59.16,7.19
59.76,7.18
60.35,7.16
60.96,7.14
61.57,7.12
62.18,7.10
62.80,7.08
63.43,7.05
64.07,7.01
64.71,6.97
65.35,6.93
66.01,6.89
66.67,6.84
67.33,6.79
68.01,6.74
68.69,6.68
69.37,6.63
70.07,6.57
70.77,6.51
71.48,6.46
72.19,6.40
72.91,6.34
73.64,6.28
74.38,6.22
75.12,6.16
75.87,6.09
76.63,6.02
77.40,5.94
78.17,5.87
78.95,5.79
79.74,5.72
80.54,5.65
81.35,5.58
82.16,5.51
82.98,5.44
83.81,5.37
84.65,5.29
85.50,5.21
86.35,5.14
87.22,5.05
88.09,4.97
88.97,4.89
89.86,4.80
90.76,4.72
91.66,4.63
92.58,4.54
93.51,4.46
94.44,4.38
95.39,4.29
96.34,4.20
97.30,4.11
98.28,4.02
99.26,3.92
100.25,3.83
101.25,3.73
102.27,3.64
103.29,3.54
104.32,3.44
105.37,3.34
106.42,3.24
107.48,3.15
108.56,3.05
109.64,2.95
110.74,2.85
111.85,2.75
112.97,2.64
114.10,2.54
115.24,2.42
116.39,2.31
117.55,2.20
118.73,2.09
119.92,1.97
121.12,1.86
122.33,1.74
123.55,1.63
124.79,1.52
126.03,1.40
127.29,1.29
128.57,1.17
129.85,1.05
131.15,0.94
132.46,0.82
133.79,0.71
135.12,0.59
136.48,0.48
137.84,0.36
139.22,0.23
140.61,0.10
142.02,-0.02
143.44,-0.15
144.87,-0.29
146.32,-0.42
147.78,-0.55
149.26,-0.68
150.75,-0.81
152.26,-0.93
153.78,-1.06
155.32,-1.18
156.88,-1.31
158.44,-1.44
160.03,-1.56
161.63,-1.68
163.24,-1.80
164.88,-1.91
166.53,-2.03
168.19,-2.14
169.87,-2.26
171.57,-2.38
173.29,-2.50
175.02,-2.61
176.77,-2.73
178.54,-2.85
180.32,-2.97
182.13,-3.10
183.95,-3.23
185.79,-3.35
187.65,-3.48
189.52,-3.61
191.42,-3.74
193.33,-3.86
195.27,-3.97
197.22,-4.07
199.19,-4.16
201.18,-4.24
203.19,-4.30
205.23,-4.36
207.28,-4.40
209.35,-4.45
211.44,-4.49
213.56,-4.54
215.69,-4.59
217.85,-4.64
220.03,-4.69
222.23,-4.75
224.45,-4.80
226.70,-4.84
228.96,-4.89
231.25,-4.93
233.57,-4.98
235.90,-5.02
238.26,-5.06
240.64,-5.09
243.05,-5.12
245.48,-5.15
247.93,-5.17
250.41,-5.18
252.92,-5.18
255.45,-5.18
258.00,-5.16
260.58,-5.12
263.19,-5.08
265.82,-5.02
268.48,-4.95
271.16,-4.89
273.87,-4.83
276.61,-4.78
279.38,-4.73
282.17,-4.69
284.99,-4.64
287.84,-4.61
290.72,-4.58
293.63,-4.55
296.57,-4.52
299.53,-4.49
302.53,-4.46
305.55,-4.44
308.61,-4.41
311.69,-4.39
314.81,-4.36
317.96,-4.34
321.14,-4.31
324.35,-4.28
327.59,-4.25
330.87,-4.22
334.18,-4.19
337.52,-4.16
340.90,-4.12
344.30,-4.09
347.75,-4.06
351.23,-4.03
354.74,-4.00
358.28,-3.97
361.87,-3.95
365.49,-3.92
369.14,-3.90
372.83,-3.87
376.56,-3.84
380.33,-3.81
384.13,-3.77
387.97,-3.74
391.85,-3.70
395.77,-3.66
399.73,-3.63
403.72,-3.59
407.76,-3.55
411.84,-3.51
415.96,-3.48
420.12,-3.44
424.32,-3.41
428.56,-3.38
432.85,-3.36
437.18,-3.33
441.55,-3.32
445.96,-3.30
450.42,-3.28
454.93,-3.26
459.48,-3.24
464.07,-3.22
468.71,-3.20
473.40,-3.18
478.13,-3.15
482.91,-3.13
487.74,-3.10
492.62,-3.07
497.55,-3.05
502.52,-3.02
507.55,-2.99
512.62,-2.97
517.75,-2.94
522.93,-2.91
528.16,-2.88
533.44,-2.86
538.77,-2.84
544.16,-2.81
549.60,-2.78
555.10,-2.76
560.65,-2.73
566.25,-2.70
571.92,-2.67
577.64,-2.64
583.41,-2.61
589.25,-2.59
595.14,-2.57
601.09,-2.55
607.10,-2.53
613.17,-2.51
619.30,-2.49
625.50,-2.46
631.75,-2.44
638.07,-2.40
644.45,-2.37
650.89,-2.34
657.40,-2.31
663.98,-2.29
670.62,-2.26
677.32,-2.23
684.10,-2.19
690.94,-2.15
697.85,-2.11
704.83,-2.06
711.87,-2.02
718.99,-1.98
726.18,-1.95
733.44,-1.92
740.78,-1.88
748.19,-1.85
755.67,-1.81
763.23,-1.77
770.86,-1.73
778.57,-1.68
786.35,-1.64
794.22,-1.59
802.16,-1.54
810.18,-1.49
818.28,-1.44
826.46,-1.38
834.73,-1.33
843.08,-1.27
851.51,-1.21
860.02,-1.15
868.62,-1.08
877.31,-1.02
886.08,-0.95
894.94,-0.88
903.89,-0.80
912.93,-0.73
922.06,-0.66
931.28,-0.59
940.59,-0.51
950.00,-0.44
959.50,-0.36
969.09,-0.27
978.78,-0.19
988.57,-0.10
998.46,-0.01
1008.44,0.07
1018.53,0.16
1028.71,0.25
1039.00,0.34
1049.39,0.43
1059.88,0.52
1070.48,0.61
1081.19,0.70
1092.00,0.78
1102.92,0.87
1113.95,0.95
1125.09,1.04
1136.34,1.13
1147.70,1.22
1159.18,1.31
1170.77,1.39
1182.48,1.48
1194.30,1.57
1206.25,1.66
1218.31,1.75
1230.49,1.84
1242.80,1.94
1255.22,2.04
1267.78,2.15
1280.45,2.26
1293.26,2.36
1306.19,2.47
1319.25,2.57
1332.45,2.63
1345.77,2.69
1359.23,2.73
1372.82,2.74
1386.55,2.75
1400.41,2.76
1414.42,2.78
1428.56,2.80
1442.85,2.83
1457.28,2.88
1471.85,2.94
1486.57,3.01
1501.43,3.09
1516.45,3.17
1531.61,3.27
1546.93,3.36
1562.40,3.46
1578.02,3.55
1593.80,3.65
1609.74,3.74
1625.84,3.84
1642.10,3.93
1658.52,4.03
1675.10,4.13
1691.85,4.23
1708.77,4.33
1725.86,4.42
1743.12,4.52
1760.55,4.62
1778.15,4.71
1795.94,4.81
1813.90,4.91
1832.03,5.01
1850.36,5.10
1868.86,5.20
1887.55,5.30
1906.42,5.40
1925.49,5.50
1944.74,5.59
1964.19,5.69
1983.83,5.78
2003.67,5.88
2023.71,5.97
2043.94,6.07
2064.38,6.16
2085.03,6.26
2105.88,6.36
2126.94,6.45
2148.20,6.54
2169.69,6.62
2191.38,6.71
2213.30,6.80
2235.43,6.88
2257.78,6.97
2280.36,7.05
2303.17,7.13
2326.20,7.21
2349.46,7.29
2372.95,7.36
2396.68,7.43
2420.65,7.50
2444.86,7.56
2469.31,7.63
2494.00,7.68
2518.94,7.74
2544.13,7.78
2569.57,7.83
2595.27,7.87
2621.22,7.91
2647.43,7.95
2673.90,7.98
2700.64,8.00
2727.65,8.03
2754.93,8.05
2782.48,8.06
2810.30,8.07
2838.40,8.08
2866.79,8.08
2895.46,8.08
2924.41,8.08
2953.65,8.08
2983.19,8.06
3013.02,8.05
3043.15,8.02
3073.58,8.00
3104.32,7.98
3135.36,7.96
3166.72,7.93
3198.38,7.90
3230.37,7.87
3262.67,7.84
3295.30,7.80
3328.25,7.76
3361.53,7.72
3395.15,7.67
3429.10,7.62
3463.39,7.57
3498.03,7.52
3533.01,7.47
3568.34,7.41
3604.02,7.36
3640.06,7.30
3676.46,7.25
3713.22,7.21
3750.36,7.17
3787.86,7.14
3825.74,7.12
3864.00,7.10
3902.64,7.09
3941.66,7.08
3981.08,7.08
4020.89,7.07
4061.10,7.06
4101.71,7.05
4142.73,7.05
4184.15,7.04
4226.00,7.03
4268.26,7.03
4310.94,7.03
4354.05,7.03
4397.59,7.05
4441.56,7.07
4485.98,7.11
4530.84,7.16
4576.15,7.23
4621.91,7.29
4668.13,7.37
4714.81,7.44
4761.96,7.51
4809.58,7.57
4857.67,7.62
4906.25,7.65
4955.31,7.66
5004.87,7.65
5054.91,7.60
5105.46,7.53
5156.52,7.42
5208.08,7.27
5260.16,7.06
5312.77,6.83
5365.89,6.53
5419.55,6.20
5473.75,5.83
5528.49,5.44
5583.77,5.02
5639.61,4.61
5696.00,4.19
5752.96,3.81
5810.49,3.44
5868.60,3.12
5927.28,2.85
5986.56,2.62
6046.42,2.46
6106.89,2.35
6167.96,2.30
6229.64,2.29
6291.93,2.34
6354.85,2.45
6418.40,2.58
6482.58,2.77
6547.41,2.99
6612.88,3.25
6679.01,3.55
6745.80,3.89
6813.26,4.24
6881.39,4.64
6950.21,5.05
7019.71,5.47
7089.91,5.90
7160.81,6.33
7232.41,6.73
7304.74,7.12
7377.79,7.43
7451.56,7.69
7526.08,7.88
7601.34,7.98
7677.35,7.94
7754.13,7.83
7831.67,7.49
7909.98,7.09
7989.08,6.55
8068.98,5.90
8149.67,5.21
8231.16,4.47
8313.47,3.73
8396.61,3.00
8480.57,2.32
8565.38,1.69
8651.03,1.10
8737.54,0.58
8824.92,0.11
8913.17,-0.30
9002.30,-0.70
9092.32,-1.03
9183.25,-1.34
9275.08,-1.63
9367.83,-1.88
9461.51,-2.10
9556.12,-2.29
9651.68,-2.45
9748.20,-2.59
9845.68,-2.68
9944.14,-2.75
10043.58,-2.79
10144.02,-2.81
10245.46,-2.79
10347.91,-2.76
10451.39,-2.72
10555.91,-2.65
10661.46,-2.56
10768.08,-2.46
10875.76,-2.34
10984.52,-2.20
11094.36,-2.05
11205.31,-1.90
11317.36,-1.73
11430.53,-1.55
11544.84,-1.34
11660.29,-1.11
11776.89,-0.85
11894.66,-0.46
12013.60,-0.05
12133.74,0.46
12255.08,1.12
12377.63,1.89
12501.41,2.79
12626.42,3.86
12752.68,5.03
12880.21,6.23
13009.01,7.42
13139.10,8.61
13270.49,9.50
13403.20,10.24
13537.23,10.48
13672.60,10.43
13809.33,10.10
13947.42,9.40
14086.90,8.62
14227.77,7.79
14370.04,7.03
14513.74,6.38
14658.88,5.88
14805.47,5.40
14953.52,4.95
15103.06,4.41
15254.09,3.82
15406.63,3.09
15560.70,2.34
15716.30,1.55
15873.47,0.82
16032.20,0.16
16192.52,-0.32
16354.45,-0.64
16517.99,-0.84
16683.17,-0.87
16850.01,-0.85
17018.51,-0.79
17188.69,-0.75
17360.58,-0.81
17534.18,-0.96
17709.53,-1.30
17886.62,-1.73
18065.49,-2.08
18246.14,-2.24
18428.60,-1.96
18612.89,-1.62
18799.02,-1.26
18987.01,-0.94
19176.88,-0.63
19368.65,-0.35
19562.33,-0.12
19757.96,0.04
19955.54,0.09
