frequency,raw
20.00,11.59
20.20,11.54
20.40,11.48
20.61,11.43
20.81,11.35
21.02,11.28
21.23,11.20
21.44,11.11
21.66,11.03
21.87,10.94
22.09,10.86
22.31,10.78
22.54,10.69
22.76,10.60
22.99,10.52
23.22,10.43
23.45,10.34
23.69,10.26
23.92,10.17
24.16,10.09
24.40,10.00
24.65,9.92
24.89,9.83
25.14,9.76
25.39,9.68
25.65,9.60
25.91,9.53
26.16,9.46
26.43,9.39
26.69,9.32
26.96,9.25
27.23,9.19
27.50,9.13
27.77,9.07
28.05,9.01
28.33,8.95
28.62,8.90
28.90,8.84
29.19,8.79
29.48,8.74
29.78,8.69
30.08,8.64
30.38,8.59
30.68,8.55
30.99,8.51
31.30,8.47
31.61,8.44
31.93,8.41
32.24,8.38
32.57,8.34
32.89,8.32
33.22,8.29
33.55,8.26
33.89,8.24
34.23,8.22
34.57,8.20
34.92,8.18
35.27,8.16
35.62,8.15
35.97,8.13
36.33,8.12
36.70,8.10
37.06,8.09
37.43,8.09
37.81,8.08
38.19,8.07
38.57,8.07
38.95,8.06
39.34,8.06
39.74,8.05
40.14,8.05
40.54,8.05
40.94,8.04
41.35,8.04
41.76,8.05
42.18,8.05
42.60,8.06
43.03,8.06
43.46,8.07
43.90,8.08
44.33,8.09
44.78,8.10
45.23,8.11
45.68,8.12
46.13,8.13
46.60,8.15
47.06,8.16
47.53,8.18
48.01,8.20
48.49,8.23
48.97,8.25
49.46,8.28
49.96,8.31
50.46,8.34
50.96,8.37
51.47,8.39
51.99,8.42
52.51,8.44
53.03,8.47
53.56,8.50
54.10,8.53
54.64,8.55
55.18,8.58
55.74,8.62
56.29,8.65
56.86,8.68
57.42,8.71
58.00,8.74
58.58,8.77
59.16,8.80
59.76,8.82
60.35,8.84
60.96,8.86
61.57,8.87
62.18,8.87
62.80,8.87
63.43,8.87
64.07,8.85
64.71,8.83
65.35,8.81
66.01,8.77
66.67,8.73
67.33,8.69
68.01,8.64
68.69,8.58
69.37,8.51
70.07,8.45
70.77,8.37
71.48,8.30
72.19,8.21
72.91,8.13
73.64,8.04
74.38,7.95
75.12,7.86
75.87,7.77
76.63,7.68
77.40,7.58
78.17,7.48
78.95,7.39
79.74,7.30
80.54,7.20
81.35,7.11
82.16,7.01
82.98,6.91
83.81,6.81
84.65,6.72
85.50,6.62
86.35,6.52
87.22,6.42
88.09,6.32
88.97,6.22
89.86,6.11
90.76,6.01
91.66,5.91
92.58,5.81
93.51,5.70
94.44,5.60
95.39,5.49
96.34,5.39
97.30,5.28
98.28,5.16
99.26,5.05
100.25,4.93
101.25,4.82
102.27,4.70
103.29,4.58
104.32,4.46
105.37,4.34
106.42,4.21
107.48,4.08
108.56,3.95
109.64,3.81
110.74,3.67
111.85,3.52
112.97,3.38
114.10,3.23
115.24,3.07
116.39,2.92
117.55,2.75
118.73,2.59
119.92,2.43
121.12,2.26
122.33,2.09
123.55,1.91
124.79,1.73
126.03,1.55
127.29,1.36
128.57,1.17
129.85,0.99
131.15,0.80
132.46,0.61
133.79,0.42
135.12,0.22
136.48,0.03
137.84,-0.16
139.22,-0.35
140.61,-0.54
142.02,-0.72
143.44,-0.91
144.87,-1.08
146.32,-1.25
147.78,-1.41
149.26,-1.55
150.75,-1.69
152.26,-1.81
153.78,-1.92
155.32,-2.02
156.88,-2.10
158.44,-2.16
160.03,-2.21
161.63,-2.24
163.24,-2.25
164.88,-2.26
166.53,-2.25
168.19,-2.23
169.87,-2.20
171.57,-2.15
173.29,-2.09
175.02,-2.02
176.77,-1.94
178.54,-1.86
180.32,-1.77
182.13,-1.69
183.95,-1.61
185.79,-1.53
187.65,-1.46
189.52,-1.38
191.42,-1.31
193.33,-1.22
195.27,-1.13
197.22,-1.03
199.19,-0.93
201.18,-0.81
203.19,-0.70
205.23,-0.58
207.28,-0.46
209.35,-0.35
211.44,-0.23
213.56,-0.13
215.69,-0.04
217.85,0.05
220.03,0.13
222.23,0.20
224.45,0.26
226.70,0.32
228.96,0.37
231.25,0.42
233.57,0.47
235.90,0.51
238.26,0.54
240.64,0.58
243.05,0.60
245.48,0.63
247.93,0.65
250.41,0.66
252.92,0.67
255.45,0.68
258.00,0.68
260.58,0.69
263.19,0.69
265.82,0.70
268.48,0.72
271.16,0.74
273.87,0.77
276.61,0.79
279.38,0.82
282.17,0.85
284.99,0.87
287.84,0.89
290.72,0.91
293.63,0.92
296.57,0.93
299.53,0.94
302.53,0.94
305.55,0.94
308.61,0.94
311.69,0.93
314.81,0.92
317.96,0.91
321.14,0.90
324.35,0.90
327.59,0.89
330.87,0.87
334.18,0.86
337.52,0.85
340.90,0.84
344.30,0.82
347.75,0.81
351.23,0.79
354.74,0.77
358.28,0.74
361.87,0.72
365.49,0.70
369.14,0.67
372.83,0.65
376.56,0.62
380.33,0.59
384.13,0.57
387.97,0.54
391.85,0.52
395.77,0.49
399.73,0.47
403.72,0.45
407.76,0.43
411.84,0.41
415.96,0.38
420.12,0.36
424.32,0.34
428.56,0.32
432.85,0.29
437.18,0.27
441.55,0.24
445.96,0.21
450.42,0.19
454.93,0.16
459.48,0.13
464.07,0.11
468.71,0.08
473.40,0.05
478.13,0.02
482.91,-0.00
487.74,-0.03
492.62,-0.05
497.55,-0.08
502.52,-0.10
507.55,-0.11
512.62,-0.13
517.75,-0.14
522.93,-0.16
528.16,-0.18
533.44,-0.20
538.77,-0.22
544.16,-0.24
549.60,-0.26
555.10,-0.28
560.65,-0.30
566.25,-0.32
571.92,-0.33
577.64,-0.35
583.41,-0.37
589.25,-0.38
595.14,-0.40
601.09,-0.41
607.10,-0.43
613.17,-0.44
619.30,-0.46
625.50,-0.47
631.75,-0.48
638.07,-0.49
644.45,-0.50
650.89,-0.51
657.40,-0.52
663.98,-0.53
670.62,-0.54
677.32,-0.55
684.10,-0.57
690.94,-0.58
697.85,-0.59
704.83,-0.59
711.87,-0.59
718.99,-0.58
726.18,-0.57
733.44,-0.56
740.78,-0.54
748.19,-0.53
755.67,-0.53
763.23,-0.53
770.86,-0.54
778.57,-0.55
786.35,-0.56
794.22,-0.57
802.16,-0.58
810.18,-0.59
818.28,-0.60
826.46,-0.60
834.73,-0.61
843.08,-0.62
851.51,-0.62
860.02,-0.62
868.62,-0.61
877.31,-0.61
886.08,-0.59
894.94,-0.58
903.89,-0.55
912.93,-0.53
922.06,-0.49
931.28,-0.45
940.59,-0.41
950.00,-0.36
959.50,-0.30
969.09,-0.24
978.78,-0.17
988.57,-0.10
998.46,-0.01
1008.44,0.07
1018.53,0.17
1028.71,0.26
1039.00,0.37
1049.39,0.48
1059.88,0.59
1070.48,0.71
1081.19,0.83
1092.00,0.95
1102.92,1.08
1113.95,1.21
1125.09,1.34
1136.34,1.48
1147.70,1.62
1159.18,1.76
1170.77,1.90
1182.48,2.05
1194.30,2.20
1206.25,2.35
1218.31,2.50
1230.49,2.66
1242.80,2.83
1255.22,3.00
1267.78,3.18
1280.45,3.36
1293.26,3.53
1306.19,3.71
1319.25,3.87
1332.45,4.01
1345.77,4.13
1359.23,4.23
1372.82,4.30
1386.55,4.38
1400.41,4.45
1414.42,4.53
1428.56,4.60
1442.85,4.70
1457.28,4.80
1471.85,4.91
1486.57,5.03
1501.43,5.15
1516.45,5.27
1531.61,5.40
1546.93,5.52
1562.40,5.64
1578.02,5.75
1593.80,5.86
1609.74,5.97
1625.84,6.07
1642.10,6.16
1658.52,6.25
1675.10,6.33
1691.85,6.40
1708.77,6.46
1725.86,6.51
1743.12,6.54
1760.55,6.57
1778.15,6.58
1795.94,6.58
1813.90,6.57
1832.03,6.55
1850.36,6.52
1868.86,6.48
1887.55,6.42
1906.42,6.36
1925.49,6.30
1944.74,6.22
1964.19,6.13
1983.83,6.04
2003.67,5.95
2023.71,5.84
2043.94,5.74
2064.38,5.63
2085.03,5.51
2105.88,5.39
2126.94,5.27
2148.20,5.15
2169.69,5.03
2191.38,4.92
2213.30,4.80
2235.43,4.69
2257.78,4.57
2280.36,4.47
2303.17,4.36
2326.20,4.26
2349.46,4.16
2372.95,4.07
2396.68,3.99
2420.65,3.90
2444.86,3.83
2469.31,3.75
2494.00,3.69
2518.94,3.63
2544.13,3.57
2569.57,3.52
2595.27,3.47
2621.22,3.43
2647.43,3.40
2673.90,3.38
2700.64,3.36
2727.65,3.34
2754.93,3.33
2782.48,3.32
2810.30,3.32
2838.40,3.32
2866.79,3.33
2895.46,3.35
2924.41,3.37
2953.65,3.39
2983.19,3.43
3013.02,3.46
3043.15,3.50
3073.58,3.55
3104.32,3.60
3135.36,3.66
3166.72,3.73
3198.38,3.80
3230.37,3.89
3262.67,3.98
3295.30,4.08
3328.25,4.18
3361.53,4.30
3395.15,4.42
3429.10,4.54
3463.39,4.68
3498.03,4.81
3533.01,4.95
3568.34,5.09
3604.02,5.23
3640.06,5.35
3676.46,5.45
3713.22,5.52
3750.36,5.55
3787.86,5.51
3825.74,5.46
3864.00,5.36
3902.64,5.23
3941.66,5.10
3981.08,4.96
4020.89,4.80
4061.10,4.64
4101.71,4.46
4142.73,4.27
4184.15,4.07
4226.00,3.86
4268.26,3.66
4310.94,3.45
4354.05,3.24
4397.59,3.03
4441.56,2.83
4485.98,2.64
4530.84,2.45
4576.15,2.27
4621.91,2.09
4668.13,1.92
4714.81,1.76
4761.96,1.59
4809.58,1.43
4857.67,1.26
4906.25,1.09
4955.31,0.92
5004.87,0.75
5054.91,0.57
5105.46,0.39
5156.52,0.22
5208.08,0.05
5260.16,-0.10
5312.77,-0.23
5365.89,-0.32
5419.55,-0.37
5473.75,-0.37
5528.49,-0.32
5583.77,-0.21
5639.61,-0.05
5696.00,0.13
5752.96,0.35
5810.49,0.58
5868.60,0.83
5927.28,1.09
5986.56,1.35
6046.42,1.61
6106.89,1.86
6167.96,2.11
6229.64,2.34
6291.93,2.56
6354.85,2.77
6418.40,2.98
6482.58,3.19
6547.41,3.40
6612.88,3.62
6679.01,3.85
6745.80,4.11
6813.26,4.38
6881.39,4.70
6950.21,5.06
7019.71,5.46
7089.91,5.91
7160.81,6.41
7232.41,6.96
7304.74,7.53
7377.79,8.13
7451.56,8.71
7526.08,9.24
7601.34,9.69
7677.35,9.95
7754.13,10.13
7831.67,9.98
7909.98,9.70
7989.08,9.20
8068.98,8.48
8149.67,7.67
8231.16,6.76
8313.47,5.81
8396.61,4.87
8480.57,3.96
8565.38,3.14
8651.03,2.37
8737.54,1.68
8824.92,1.07
8913.17,0.54
9002.30,0.02
9092.32,-0.43
9183.25,-0.84
9275.08,-1.24
9367.83,-1.62
9461.51,-1.98
9556.12,-2.33
9651.68,-2.66
9748.20,-2.98
9845.68,-3.27
9944.14,-3.55
10043.58,-3.80
10144.02,-4.03
10245.46,-4.26
10347.91,-4.49
10451.39,-4.73
10555.91,-4.97
10661.46,-5.19
10768.08,-5.39
10875.76,-5.55
10984.52,-5.68
11094.36,-5.79
11205.31,-5.86
11317.36,-5.90
11430.53,-5.92
11544.84,-5.89
11660.29,-5.80
11776.89,-5.68
11894.66,-5.44
12013.60,-5.17
12133.74,-4.85
12255.08,-4.44
12377.63,-3.97
12501.41,-3.44
12626.42,-2.80
12752.68,-2.07
12880.21,-1.23
13009.01,-0.33
13139.10,0.56
13270.49,1.58
13403.20,2.61
13537.23,3.55
13672.60,4.32
13809.33,4.89
13947.42,4.96
14086.90,4.59
14227.77,3.95
14370.04,3.07
14513.74,1.93
14658.88,0.66
14805.47,-0.58
14953.52,-1.76
15103.06,-2.80
15254.09,-3.77
15406.63,-4.53
15560.70,-5.20
15716.30,-5.74
15873.47,-6.08
16032.20,-6.30
16192.52,-6.27
16354.45,-6.04
16517.99,-5.69
16683.17,-5.14
16850.01,-4.55
17018.51,-3.95
17188.69,-3.45
17360.58,-3.11
17534.18,-2.95
17709.53,-3.09
17886.62,-3.53
18065.49,-4.19
18246.14,-5.06
18428.60,-6.14
18612.89,-7.27
18799.02,-8.45
18987.01,-9.64
19176.88,-10.78
19368.65,-11.83
19562.33,-12.74
19757.96,-13.47
19955.54,-13.87
