frequency,raw,smoothed,error,error_smoothed,equalization,parametric_eq,fixed_band_eq,equalized_raw,equalized_smoothed,target
20.00,10.15,10.15,3.71,3.71,-3.72,-3.19,-1.35,6.43,6.42,6.44
20.20,10.14,10.14,3.70,3.71,-3.71,-3.19,-1.39,6.43,6.44,6.44
20.40,10.14,10.14,3.70,3.70,-3.69,-3.18,-1.43,6.45,6.45,6.44
20.61,10.13,10.13,3.69,3.69,-3.68,-3.17,-1.47,6.45,6.45,6.44
20.81,10.11,10.11,3.67,3.67,-3.66,-3.17,-1.52,6.45,6.45,6.44
21.02,10.09,10.09,3.65,3.65,-3.65,-3.16,-1.56,6.44,6.44,6.44
21.23,10.07,10.07,3.63,3.63,-3.64,-3.15,-1.61,6.43,6.43,6.43
21.44,10.05,10.05,3.61,3.62,-3.62,-3.15,-1.66,6.43,6.43,6.43
21.66,10.04,10.04,3.61,3.60,-3.61,-3.14,-1.70,6.43,6.43,6.43
21.87,10.02,10.02,3.59,3.59,-3.60,-3.13,-1.76,6.42,6.43,6.43
22.09,10.02,10.02,3.59,3.58,-3.59,-3.13,-1.81,6.43,6.43,6.43
22.31,10.01,10.01,3.58,3.58,-3.58,-3.12,-1.86,6.43,6.43,6.43
22.54,10.00,10.00,3.57,3.57,-3.57,-3.11,-1.92,6.43,6.43,6.43
22.76,9.99,9.99,3.56,3.56,-3.56,-3.10,-1.97,6.43,6.43,6.43
22.99,9.98,9.98,3.55,3.55,-3.55,-3.10,-2.03,6.43,6.43,6.43
23.22,9.97,9.97,3.54,3.54,-3.54,-3.09,-2.09,6.43,6.43,6.43
23.45,9.96,9.96,3.53,3.53,-3.53,-3.08,-2.15,6.43,6.43,6.43
23.69,9.94,9.94,3.51,3.52,-3.52,-3.07,-2.21,6.42,6.42,6.42
23.92,9.93,9.93,3.51,3.50,-3.51,-3.06,-2.27,6.42,6.42,6.42
24.16,9.92,9.92,3.50,3.50,-3.51,-3.06,-2.34,6.41,6.41,6.42
24.40,9.92,9.92,3.50,3.50,-3.51,-3.05,-2.40,6.41,6.41,6.42
24.65,9.93,9.93,3.51,3.51,-3.52,-3.04,-2.47,6.41,6.41,6.42
24.89,9.94,9.94,3.52,3.52,-3.52,-3.03,-2.53,6.42,6.42,6.42
25.14,9.95,9.95,3.53,3.53,-3.52,-3.02,-2.60,6.42,6.42,6.42
25.39,9.95,9.95,3.53,3.53,-3.52,-3.02,-2.67,6.42,6.43,6.42
25.65,9.95,9.95,3.53,3.53,-3.52,-3.01,-2.73,6.43,6.43,6.41
25.91,9.93,9.93,3.52,3.52,-3.51,-3.00,-2.80,6.42,6.42,6.41
26.16,9.91,9.91,3.50,3.50,-3.49,-2.99,-2.87,6.42,6.42,6.41
26.43,9.88,9.88,3.47,3.47,-3.46,-2.98,-2.93,6.42,6.41,6.41
26.69,9.84,9.84,3.43,3.43,-3.43,-2.97,-3.00,6.41,6.41,6.41
26.96,9.80,9.80,3.39,3.39,-3.40,-2.96,-3.06,6.40,6.40,6.41
27.23,9.76,9.76,3.36,3.36,-3.37,-2.95,-3.12,6.39,6.40,6.40
27.50,9.73,9.73,3.33,3.33,-3.33,-2.95,-3.19,6.40,6.40,6.40
27.77,9.70,9.70,3.30,3.30,-3.30,-2.94,-3.24,6.40,6.40,6.40
28.05,9.67,9.67,3.27,3.27,-3.27,-2.93,-3.30,6.40,6.40,6.40
28.33,9.64,9.64,3.24,3.24,-3.24,-2.92,-3.35,6.40,6.40,6.40
28.62,9.61,9.61,3.22,3.21,-3.21,-2.91,-3.40,6.40,6.40,6.39
28.90,9.58,9.58,3.19,3.19,-3.19,-2.90,-3.45,6.39,6.39,6.39
29.19,9.56,9.56,3.17,3.17,-3.18,-2.89,-3.49,6.38,6.38,6.39
29.48,9.54,9.54,3.15,3.15,-3.16,-2.88,-3.53,6.37,6.38,6.39
29.78,9.53,9.53,3.14,3.15,-3.15,-2.87,-3.56,6.38,6.38,6.38
30.08,9.53,9.53,3.15,3.14,-3.15,-2.86,-3.59,6.38,6.38,6.38
30.38,9.52,9.52,3.14,3.14,-3.14,-2.85,-3.61,6.38,6.39,6.38
30.68,9.52,9.51,3.14,3.14,-3.13,-2.84,-3.63,6.39,6.39,6.38
30.99,9.50,9.50,3.13,3.13,-3.11,-2.83,-3.64,6.39,6.39,6.37
31.30,9.48,9.48,3.11,3.11,-3.10,-2.82,-3.64,6.38,6.38,6.37
31.61,9.45,9.45,3.08,3.08,-3.08,-2.81,-3.65,6.37,6.37,6.37
31.93,9.42,9.42,3.06,3.06,-3.06,-2.80,-3.64,6.36,6.36,6.36
32.24,9.39,9.39,3.03,3.03,-3.04,-2.78,-3.63,6.35,6.35,6.36
32.57,9.37,9.37,3.01,3.01,-3.02,-2.77,-3.62,6.35,6.35,6.36
32.89,9.35,9.35,3.00,2.99,-3.00,-2.76,-3.60,6.35,6.35,6.35
33.22,9.33,9.33,2.98,2.98,-2.98,-2.75,-3.57,6.35,6.35,6.35
33.55,9.31,9.31,2.96,2.96,-2.96,-2.74,-3.54,6.35,6.35,6.35
33.89,9.29,9.29,2.95,2.94,-2.94,-2.73,-3.51,6.35,6.35,6.34
34.23,9.26,9.26,2.92,2.93,-2.92,-2.72,-3.47,6.34,6.34,6.34
34.57,9.24,9.24,2.91,2.90,-2.90,-2.70,-3.43,6.34,6.34,6.33
34.92,9.21,9.21,2.88,2.88,-2.88,-2.69,-3.39,6.33,6.33,6.33
35.27,9.18,9.18,2.86,2.86,-2.86,-2.68,-3.34,6.32,6.32,6.32
35.62,9.15,9.15,2.83,2.83,-2.83,-2.67,-3.29,6.32,6.32,6.32
35.97,9.12,9.12,2.80,2.81,-2.81,-2.66,-3.24,6.31,6.31,6.31
36.33,9.10,9.10,2.79,2.79,-2.79,-2.64,-3.19,6.31,6.31,6.31
36.70,9.07,9.07,2.77,2.76,-2.77,-2.63,-3.13,6.30,6.30,6.30
37.06,9.04,9.04,2.74,2.74,-2.74,-2.62,-3.08,6.30,6.30,6.30
37.43,9.01,9.01,2.72,2.72,-2.72,-2.60,-3.02,6.29,6.29,6.29
37.81,8.99,8.99,2.70,2.70,-2.70,-2.59,-2.97,6.29,6.29,6.29
38.19,8.96,8.96,2.68,2.68,-2.67,-2.58,-2.91,6.28,6.28,6.28
38.57,8.93,8.93,2.66,2.65,-2.65,-2.56,-2.86,6.28,6.28,6.27
38.95,8.89,8.89,2.62,2.63,-2.62,-2.55,-2.80,6.26,6.27,6.27
39.34,8.86,8.86,2.60,2.60,-2.60,-2.53,-2.75,6.26,6.26,6.26
39.74,8.82,8.82,2.57,2.57,-2.57,-2.52,-2.69,6.25,6.25,6.25
40.14,8.79,8.79,2.55,2.54,-2.54,-2.50,-2.64,6.25,6.24,6.24
40.54,8.75,8.75,2.51,2.52,-2.52,-2.49,-2.59,6.23,6.24,6.24
40.94,8.72,8.72,2.49,2.49,-2.49,-2.47,-2.54,6.23,6.23,6.23
41.35,8.69,8.68,2.47,2.46,-2.47,-2.46,-2.49,6.22,6.22,6.22
41.76,8.65,8.65,2.44,2.44,-2.44,-2.44,-2.44,6.21,6.21,6.21
42.18,8.62,8.62,2.42,2.42,-2.42,-2.42,-2.40,6.20,6.20,6.20
42.60,8.59,8.59,2.40,2.39,-2.39,-2.41,-2.35,6.20,6.19,6.19
43.03,8.55,8.55,2.37,2.37,-2.37,-2.39,-2.31,6.18,6.19,6.18
43.46,8.52,8.52,2.35,2.34,-2.34,-2.37,-2.27,6.18,6.18,6.17
43.90,8.48,8.48,2.32,2.32,-2.31,-2.35,-2.23,6.17,6.16,6.16
44.33,8.44,8.44,2.29,2.29,-2.29,-2.34,-2.19,6.15,6.15,6.15
44.78,8.40,8.40,2.26,2.26,-2.26,-2.32,-2.16,6.14,6.14,6.14
45.23,8.36,8.36,2.23,2.23,-2.23,-2.30,-2.12,6.13,6.13,6.13
45.68,8.32,8.32,2.20,2.20,-2.21,-2.28,-2.09,6.11,6.11,6.12
46.13,8.28,8.28,2.17,2.18,-2.18,-2.26,-2.06,6.10,6.10,6.10
46.60,8.24,8.24,2.15,2.15,-2.15,-2.24,-2.03,6.09,6.09,6.09
47.06,8.21,8.21,2.13,2.13,-2.13,-2.22,-2.00,6.08,6.08,6.08
47.53,8.17,8.17,2.10,2.10,-2.10,-2.20,-1.98,6.07,6.07,6.06
48.01,8.13,8.13,2.08,2.08,-2.08,-2.17,-1.95,6.05,6.05,6.05
48.49,8.09,8.09,2.05,2.05,-2.05,-2.15,-1.93,6.04,6.04,6.04
48.97,8.05,8.05,2.03,2.03,-2.03,-2.13,-1.91,6.02,6.02,6.02
49.46,8.01,8.01,2.00,2.00,-2.00,-2.10,-1.89,6.01,6.01,6.00
49.96,7.96,7.96,1.97,1.98,-1.97,-2.08,-1.87,5.99,5.99,5.99
50.46,7.92,7.92,1.95,1.95,-1.94,-2.06,-1.85,5.97,5.97,5.97
50.96,7.87,7.87,1.92,1.91,-1.92,-2.03,-1.83,5.95,5.95,5.95
51.47,7.82,7.82,1.88,1.89,-1.89,-2.00,-1.82,5.93,5.93,5.94
51.99,7.77,7.77,1.85,1.86,-1.86,-1.98,-1.81,5.91,5.91,5.92
52.51,7.73,7.73,1.83,1.83,-1.83,-1.95,-1.79,5.90,5.90,5.90
53.03,7.68,7.68,1.80,1.80,-1.80,-1.92,-1.78,5.88,5.88,5.88
53.56,7.63,7.63,1.77,1.77,-1.77,-1.89,-1.77,5.85,5.86,5.86
54.10,7.58,7.58,1.74,1.75,-1.75,-1.86,-1.76,5.83,5.83,5.84
54.64,7.54,7.54,1.73,1.72,-1.72,-1.83,-1.74,5.82,5.81,5.81
55.18,7.49,7.49,1.70,1.70,-1.70,-1.80,-1.73,5.79,5.79,5.79
55.74,7.44,7.44,1.67,1.67,-1.67,-1.77,-1.72,5.77,5.77,5.77
56.29,7.39,7.39,1.65,1.65,-1.65,-1.74,-1.71,5.74,5.74,5.74
56.86,7.34,7.34,1.62,1.62,-1.62,-1.71,-1.70,5.72,5.72,5.72
57.42,7.29,7.29,1.60,1.60,-1.60,-1.68,-1.69,5.69,5.69,5.69
58.00,7.24,7.24,1.57,1.57,-1.57,-1.64,-1.68,5.67,5.67,5.67
58.58,7.19,7.19,1.55,1.55,-1.55,-1.61,-1.67,5.64,5.64,5.64
59.16,7.13,7.13,1.52,1.52,-1.52,-1.58,-1.65,5.61,5.61,5.61
59.76,7.08,7.08,1.50,1.50,-1.50,-1.55,-1.64,5.58,5.58,5.58
60.35,7.03,7.03,1.48,1.47,-1.47,-1.51,-1.63,5.55,5.55,5.55
60.96,6.97,6.97,1.45,1.45,-1.45,-1.48,-1.61,5.52,5.52,5.52
61.57,6.92,6.92,1.43,1.43,-1.43,-1.45,-1.60,5.49,5.49,5.49
62.18,6.86,6.86,1.40,1.40,-1.40,-1.42,-1.58,5.46,5.46,5.46
62.80,6.81,6.81,1.38,1.38,-1.38,-1.39,-1.57,5.43,5.43,5.42
63.43,6.75,6.75,1.36,1.36,-1.36,-1.36,-1.55,5.39,5.39,5.39
64.07,6.69,6.69,1.33,1.33,-1.33,-1.33,-1.53,5.35,5.35,5.36
64.71,6.63,6.63,1.31,1.31,-1.31,-1.30,-1.51,5.32,5.32,5.32
65.35,6.57,6.57,1.29,1.29,-1.29,-1.27,-1.49,5.28,5.28,5.28
66.01,6.52,6.52,1.28,1.27,-1.27,-1.25,-1.47,5.24,5.24,5.24
66.67,6.46,6.46,1.25,1.26,-1.26,-1.23,-1.45,5.20,5.21,5.21
67.33,6.41,6.41,1.24,1.24,-1.24,-1.20,-1.42,5.17,5.17,5.16
68.01,6.35,6.35,1.23,1.22,-1.22,-1.18,-1.40,5.13,5.13,5.12
68.69,6.29,6.29,1.21,1.21,-1.21,-1.16,-1.37,5.08,5.08,5.08
69.37,6.23,6.23,1.19,1.19,-1.19,-1.15,-1.35,5.04,5.04,5.04
70.07,6.17,6.17,1.17,1.17,-1.17,-1.13,-1.32,5.00,5.00,4.99
70.77,6.11,6.11,1.16,1.16,-1.16,-1.11,-1.30,4.95,4.95,4.95
71.48,6.04,6.04,1.14,1.14,-1.14,-1.10,-1.27,4.90,4.90,4.90
72.19,5.98,5.98,1.12,1.12,-1.12,-1.09,-1.25,4.86,4.86,4.86
72.91,5.91,5.91,1.10,1.10,-1.10,-1.08,-1.22,4.81,4.81,4.81
73.64,5.84,5.84,1.08,1.08,-1.08,-1.07,-1.19,4.75,4.76,4.76
74.38,5.78,5.78,1.07,1.07,-1.07,-1.06,-1.17,4.71,4.71,4.71
75.12,5.71,5.71,1.05,1.05,-1.05,-1.05,-1.14,4.66,4.66,4.66
75.87,5.64,5.64,1.03,1.03,-1.03,-1.04,-1.11,4.61,4.61,4.61
76.63,5.57,5.57,1.02,1.02,-1.02,-1.03,-1.09,4.55,4.55,4.55
77.40,5.50,5.50,1.00,1.00,-1.00,-1.02,-1.06,4.50,4.50,4.50
78.17,5.43,5.43,0.99,0.99,-0.99,-1.02,-1.04,4.44,4.44,4.44
78.95,5.36,5.36,0.97,0.97,-0.97,-1.01,-1.01,4.38,4.38,4.39
79.74,5.29,5.29,0.96,0.96,-0.96,-1.00,-0.99,4.33,4.33,4.33
80.54,5.22,5.22,0.95,0.95,-0.95,-0.99,-0.96,4.27,4.27,4.27
81.35,5.15,5.15,0.94,0.94,-0.94,-0.98,-0.94,4.21,4.21,4.21
82.16,5.08,5.08,0.93,0.92,-0.92,-0.97,-0.92,4.15,4.15,4.15
82.98,5.00,5.00,0.91,0.91,-0.91,-0.96,-0.89,4.09,4.09,4.09
83.81,4.93,4.93,0.90,0.90,-0.90,-0.95,-0.87,4.03,4.03,4.03
84.65,4.86,4.86,0.89,0.89,-0.89,-0.94,-0.85,3.97,3.96,3.97
85.50,4.78,4.78,0.88,0.88,-0.88,-0.93,-0.83,3.90,3.90,3.90
86.35,4.71,4.71,0.87,0.87,-0.87,-0.92,-0.81,3.84,3.84,3.84
87.22,4.63,4.63,0.86,0.86,-0.86,-0.91,-0.79,3.77,3.77,3.77
88.09,4.56,4.56,0.85,0.85,-0.85,-0.90,-0.77,3.71,3.71,3.71
88.97,4.48,4.48,0.84,0.84,-0.84,-0.89,-0.75,3.64,3.64,3.64
89.86,4.40,4.40,0.83,0.83,-0.83,-0.87,-0.74,3.57,3.57,3.57
90.76,4.33,4.33,0.83,0.82,-0.82,-0.86,-0.72,3.51,3.50,3.50
91.66,4.25,4.25,0.81,0.81,-0.81,-0.85,-0.70,3.43,3.43,3.44
92.58,4.17,4.17,0.80,0.80,-0.81,-0.83,-0.69,3.36,3.36,3.37
93.51,4.09,4.09,0.79,0.80,-0.80,-0.82,-0.67,3.29,3.29,3.30
94.44,4.02,4.02,0.79,0.79,-0.79,-0.81,-0.65,3.23,3.23,3.23
95.39,3.94,3.94,0.78,0.78,-0.78,-0.79,-0.64,3.16,3.16,3.16
96.34,3.86,3.86,0.77,0.78,-0.77,-0.78,-0.63,3.09,3.09,3.08
97.30,3.78,3.78,0.77,0.77,-0.76,-0.76,-0.61,3.02,3.02,3.01
98.28,3.70,3.70,0.76,0.76,-0.75,-0.75,-0.60,2.94,2.94,2.94
99.26,3.61,3.61,0.74,0.74,-0.75,-0.73,-0.59,2.86,2.87,2.87
100.25,3.53,3.53,0.73,0.73,-0.74,-0.72,-0.57,2.79,2.79,2.80
101.25,3.45,3.45,0.73,0.72,-0.73,-0.70,-0.56,2.72,2.72,2.72
102.27,3.37,3.37,0.72,0.72,-0.72,-0.69,-0.55,2.65,2.65,2.65
103.29,3.29,3.29,0.71,0.71,-0.71,-0.68,-0.54,2.58,2.58,2.58
104.32,3.21,3.21,0.70,0.71,-0.70,-0.66,-0.53,2.51,2.51,2.50
105.37,3.13,3.13,0.70,0.69,-0.69,-0.65,-0.51,2.44,2.44,2.43
106.42,3.04,3.04,0.68,0.68,-0.68,-0.63,-0.50,2.36,2.36,2.36
107.48,2.95,2.95,0.66,0.67,-0.67,-0.62,-0.49,2.28,2.28,2.29
108.56,2.86,2.86,0.65,0.65,-0.65,-0.61,-0.48,2.21,2.21,2.21
109.64,2.78,2.78,0.64,0.64,-0.64,-0.59,-0.47,2.14,2.14,2.14
110.74,2.69,2.69,0.62,0.62,-0.62,-0.58,-0.46,2.07,2.07,2.07
111.85,2.60,2.60,0.60,0.61,-0.60,-0.57,-0.45,2.00,2.00,1.99
112.97,2.51,2.51,0.59,0.59,-0.59,-0.56,-0.44,1.92,1.92,1.92
114.10,2.42,2.42,0.57,0.57,-0.57,-0.54,-0.43,1.85,1.85,1.85
115.24,2.33,2.33,0.55,0.55,-0.55,-0.53,-0.41,1.78,1.78,1.78
116.39,2.24,2.24,0.53,0.53,-0.53,-0.52,-0.40,1.71,1.71,1.71
117.55,2.15,2.15,0.51,0.51,-0.51,-0.50,-0.39,1.64,1.64,1.64
118.73,2.06,2.06,0.49,0.49,-0.49,-0.49,-0.38,1.57,1.57,1.57
119.92,1.97,1.97,0.47,0.47,-0.47,-0.47,-0.36,1.50,1.50,1.50
121.12,1.88,1.88,0.45,0.45,-0.45,-0.46,-0.35,1.43,1.43,1.43
122.33,1.79,1.79,0.43,0.43,-0.42,-0.44,-0.33,1.37,1.37,1.36
123.55,1.70,1.70,0.40,0.40,-0.40,-0.43,-0.32,1.30,1.30,1.29
124.79,1.60,1.60,0.37,0.37,-0.37,-0.41,-0.31,1.23,1.23,1.23
126.03,1.51,1.51,0.35,0.34,-0.35,-0.39,-0.29,1.16,1.16,1.16
127.29,1.41,1.41,0.31,0.32,-0.32,-0.36,-0.27,1.09,1.09,1.10
128.57,1.32,1.32,0.29,0.29,-0.29,-0.34,-0.26,1.03,1.03,1.03
129.85,1.23,1.23,0.26,0.26,-0.26,-0.32,-0.24,0.97,0.97,0.97
131.15,1.14,1.14,0.23,0.23,-0.23,-0.29,-0.22,0.91,0.91,0.90
132.46,1.05,1.05,0.21,0.21,-0.20,-0.26,-0.20,0.84,0.84,0.84
133.79,0.96,0.96,0.18,0.18,-0.18,-0.23,-0.18,0.78,0.78,0.78
135.12,0.87,0.87,0.15,0.15,-0.15,-0.20,-0.16,0.72,0.72,0.72
136.48,0.78,0.78,0.12,0.12,-0.12,-0.17,-0.14,0.66,0.66,0.66
137.84,0.69,0.69,0.09,0.09,-0.09,-0.13,-0.12,0.60,0.60,0.60
139.22,0.61,0.61,0.06,0.06,-0.06,-0.10,-0.10,0.55,0.54,0.55
140.61,0.52,0.52,0.03,0.03,-0.03,-0.06,-0.08,0.49,0.49,0.49
142.02,0.44,0.44,0.01,0.00,-0.00,-0.02,-0.06,0.44,0.43,0.43
143.44,0.35,0.35,-0.03,-0.03,0.03,0.02,-0.03,0.38,0.38,0.38
144.87,0.27,0.27,-0.06,-0.06,0.06,0.06,-0.01,0.33,0.33,0.32
146.32,0.18,0.18,-0.09,-0.09,0.10,0.10,0.02,0.28,0.27,0.27
147.78,0.09,0.09,-0.13,-0.13,0.13,0.14,0.04,0.22,0.22,0.22
149.26,-0.00,-0.00,-0.17,-0.17,0.17,0.18,0.06,0.17,0.17,0.17
150.75,-0.09,-0.09,-0.21,-0.21,0.21,0.22,0.09,0.12,0.12,0.12
152.26,-0.17,-0.17,-0.24,-0.25,0.25,0.27,0.12,0.07,0.07,0.07
153.78,-0.26,-0.26,-0.29,-0.28,0.28,0.31,0.14,0.02,0.02,0.02
155.32,-0.34,-0.34,-0.32,-0.32,0.32,0.35,0.17,-0.02,-0.02,-0.02
156.88,-0.43,-0.43,-0.36,-0.36,0.36,0.39,0.19,-0.07,-0.07,-0.07
158.44,-0.51,-0.51,-0.40,-0.40,0.40,0.43,0.22,-0.12,-0.11,-0.11
160.03,-0.59,-0.59,-0.44,-0.43,0.43,0.47,0.25,-0.16,-0.16,-0.16
161.63,-0.67,-0.67,-0.46,-0.47,0.47,0.51,0.28,-0.20,-0.20,-0.21
163.24,-0.75,-0.75,-0.50,-0.51,0.51,0.55,0.31,-0.24,-0.24,-0.25
164.88,-0.84,-0.84,-0.55,-0.55,0.55,0.59,0.34,-0.29,-0.29,-0.29
166.53,-0.92,-0.92,-0.59,-0.59,0.59,0.63,0.37,-0.33,-0.33,-0.33
168.19,-1.00,-1.00,-0.63,-0.63,0.63,0.66,0.40,-0.37,-0.37,-0.37
169.87,-1.08,-1.08,-0.68,-0.67,0.67,0.70,0.43,-0.41,-0.41,-0.40
171.57,-1.15,-1.15,-0.71,-0.71,0.71,0.74,0.46,-0.44,-0.44,-0.44
173.29,-1.23,-1.23,-0.75,-0.75,0.75,0.77,0.49,-0.48,-0.48,-0.48
175.02,-1.30,-1.30,-0.79,-0.79,0.79,0.81,0.52,-0.51,-0.51,-0.51
176.77,-1.37,-1.38,-0.83,-0.83,0.83,0.84,0.55,-0.54,-0.54,-0.54
178.54,-1.45,-1.45,-0.87,-0.87,0.87,0.87,0.58,-0.58,-0.57,-0.58
180.32,-1.52,-1.52,-0.91,-0.91,0.91,0.91,0.62,-0.61,-0.61,-0.61
182.13,-1.59,-1.59,-0.95,-0.95,0.95,0.94,0.65,-0.64,-0.64,-0.64
183.95,-1.66,-1.66,-0.99,-0.99,0.99,0.97,0.68,-0.67,-0.67,-0.67
185.79,-1.73,-1.73,-1.03,-1.03,1.03,1.00,0.72,-0.70,-0.70,-0.70
187.65,-1.80,-1.80,-1.07,-1.07,1.07,1.04,0.75,-0.73,-0.73,-0.73
189.52,-1.86,-1.86,-1.11,-1.11,1.10,1.07,0.79,-0.76,-0.76,-0.75
191.42,-1.92,-1.92,-1.14,-1.14,1.14,1.10,0.82,-0.78,-0.78,-0.78
193.33,-1.97,-1.97,-1.16,-1.17,1.17,1.13,0.86,-0.80,-0.81,-0.81
195.27,-2.03,-2.03,-1.20,-1.20,1.20,1.16,0.90,-0.83,-0.83,-0.83
197.22,-2.08,-2.08,-1.22,-1.22,1.23,1.19,0.93,-0.86,-0.86,-0.86
199.19,-2.13,-2.13,-1.25,-1.25,1.25,1.21,0.97,-0.88,-0.88,-0.88
201.18,-2.18,-2.18,-1.28,-1.28,1.28,1.24,1.01,-0.90,-0.90,-0.90
203.19,-2.23,-2.23,-1.31,-1.30,1.30,1.27,1.04,-0.93,-0.92,-0.92
205.23,-2.27,-2.27,-1.32,-1.33,1.33,1.30,1.08,-0.94,-0.94,-0.95
207.28,-2.32,-2.32,-1.35,-1.35,1.35,1.33,1.11,-0.97,-0.96,-0.97
209.35,-2.36,-2.36,-1.37,-1.38,1.38,1.35,1.15,-0.98,-0.99,-0.99
211.44,-2.41,-2.41,-1.40,-1.40,1.40,1.38,1.19,-1.01,-1.01,-1.01
213.56,-2.45,-2.45,-1.43,-1.42,1.42,1.40,1.22,-1.03,-1.03,-1.03
215.69,-2.49,-2.49,-1.45,-1.45,1.44,1.43,1.26,-1.05,-1.05,-1.04
217.85,-2.52,-2.53,-1.46,-1.46,1.46,1.45,1.29,-1.06,-1.07,-1.06
220.03,-2.56,-2.56,-1.48,-1.48,1.48,1.47,1.32,-1.08,-1.08,-1.08
222.23,-2.59,-2.59,-1.50,-1.49,1.49,1.49,1.35,-1.10,-1.09,-1.10
224.45,-2.61,-2.62,-1.50,-1.50,1.51,1.51,1.38,-1.10,-1.11,-1.11
226.70,-2.64,-2.64,-1.51,-1.51,1.52,1.52,1.41,-1.12,-1.12,-1.13
228.96,-2.67,-2.67,-1.53,-1.53,1.53,1.53,1.44,-1.14,-1.14,-1.14
231.25,-2.70,-2.70,-1.54,-1.54,1.54,1.54,1.47,-1.16,-1.16,-1.16
233.57,-2.73,-2.73,-1.56,-1.55,1.55,1.55,1.49,-1.18,-1.18,-1.17
235.90,-2.75,-2.75,-1.56,-1.56,1.56,1.56,1.51,-1.19,-1.19,-1.19
238.26,-2.77,-2.78,-1.56,-1.57,1.57,1.56,1.53,-1.20,-1.20,-1.21
240.64,-2.80,-2.80,-1.58,-1.58,1.58,1.56,1.55,-1.22,-1.22,-1.22
243.05,-2.82,-2.82,-1.59,-1.59,1.59,1.56,1.56,-1.23,-1.23,-1.23
245.48,-2.84,-2.84,-1.60,-1.60,1.60,1.56,1.58,-1.24,-1.24,-1.24
247.93,-2.86,-2.86,-1.61,-1.61,1.61,1.56,1.59,-1.25,-1.25,-1.25
250.41,-2.88,-2.88,-1.62,-1.62,1.62,1.55,1.60,-1.26,-1.26,-1.27
252.92,-2.90,-2.90,-1.63,-1.63,1.63,1.55,1.60,-1.27,-1.28,-1.28
255.45,-2.92,-2.92,-1.63,-1.63,1.63,1.54,1.61,-1.29,-1.29,-1.29
258.00,-2.93,-2.93,-1.63,-1.64,1.63,1.53,1.61,-1.30,-1.30,-1.30
260.58,-2.94,-2.94,-1.64,-1.63,1.63,1.52,1.61,-1.31,-1.31,-1.31
263.19,-2.94,-2.94,-1.63,-1.63,1.62,1.51,1.61,-1.32,-1.32,-1.31
265.82,-2.94,-2.94,-1.62,-1.62,1.61,1.50,1.60,-1.33,-1.33,-1.32
268.48,-2.93,-2.93,-1.60,-1.60,1.60,1.49,1.59,-1.33,-1.34,-1.33
271.16,-2.92,-2.92,-1.58,-1.58,1.58,1.48,1.59,-1.34,-1.34,-1.34
273.87,-2.91,-2.91,-1.56,-1.56,1.56,1.47,1.58,-1.35,-1.35,-1.35
276.61,-2.89,-2.89,-1.54,-1.54,1.54,1.46,1.56,-1.35,-1.35,-1.36
279.38,-2.88,-2.88,-1.52,-1.52,1.53,1.45,1.55,-1.35,-1.36,-1.36
282.17,-2.87,-2.87,-1.50,-1.50,1.51,1.44,1.54,-1.36,-1.36,-1.37
284.99,-2.86,-2.86,-1.49,-1.49,1.49,1.43,1.52,-1.37,-1.37,-1.37
287.84,-2.85,-2.85,-1.49,-1.48,1.48,1.42,1.51,-1.37,-1.37,-1.36
290.72,-2.84,-2.84,-1.47,-1.47,1.47,1.42,1.49,-1.38,-1.37,-1.37
293.63,-2.82,-2.82,-1.44,-1.45,1.45,1.41,1.47,-1.37,-1.37,-1.38
296.57,-2.81,-2.81,-1.44,-1.44,1.44,1.40,1.46,-1.37,-1.37,-1.37
299.53,-2.79,-2.79,-1.42,-1.42,1.42,1.39,1.44,-1.37,-1.37,-1.37
302.53,-2.78,-2.78,-1.41,-1.41,1.40,1.38,1.42,-1.38,-1.37,-1.37
305.55,-2.76,-2.76,-1.39,-1.39,1.39,1.38,1.40,-1.37,-1.37,-1.37
308.61,-2.74,-2.74,-1.37,-1.37,1.37,1.37,1.39,-1.37,-1.37,-1.37
311.69,-2.72,-2.72,-1.35,-1.35,1.35,1.36,1.37,-1.37,-1.37,-1.37
314.81,-2.70,-2.70,-1.33,-1.33,1.33,1.35,1.35,-1.37,-1.37,-1.37
317.96,-2.68,-2.68,-1.31,-1.31,1.31,1.35,1.34,-1.37,-1.37,-1.37
321.14,-2.66,-2.66,-1.29,-1.29,1.30,1.34,1.32,-1.36,-1.37,-1.37
324.35,-2.65,-2.65,-1.28,-1.28,1.28,1.33,1.31,-1.37,-1.37,-1.37
327.59,-2.63,-2.63,-1.27,-1.27,1.27,1.33,1.29,-1.36,-1.37,-1.36
330.87,-2.62,-2.62,-1.26,-1.26,1.25,1.32,1.28,-1.37,-1.37,-1.37
334.18,-2.60,-2.60,-1.24,-1.24,1.24,1.31,1.27,-1.36,-1.36,-1.36
337.52,-2.59,-2.59,-1.23,-1.23,1.23,1.31,1.25,-1.36,-1.36,-1.36
340.90,-2.57,-2.57,-1.21,-1.22,1.22,1.30,1.24,-1.35,-1.35,-1.36
344.30,-2.55,-2.56,-1.20,-1.20,1.20,1.30,1.23,-1.35,-1.35,-1.35
347.75,-2.54,-2.54,-1.20,-1.19,1.19,1.29,1.23,-1.35,-1.34,-1.34
351.23,-2.52,-2.52,-1.17,-1.18,1.18,1.28,1.22,-1.34,-1.34,-1.35
354.74,-2.50,-2.50,-1.17,-1.17,1.17,1.28,1.21,-1.33,-1.33,-1.33
358.28,-2.49,-2.49,-1.16,-1.16,1.16,1.27,1.20,-1.33,-1.33,-1.33
361.87,-2.47,-2.47,-1.15,-1.15,1.15,1.27,1.20,-1.32,-1.32,-1.32
365.49,-2.46,-2.46,-1.14,-1.14,1.14,1.26,1.20,-1.32,-1.32,-1.32
369.14,-2.44,-2.44,-1.12,-1.13,1.13,1.25,1.19,-1.31,-1.31,-1.32
372.83,-2.43,-2.43,-1.13,-1.12,1.12,1.25,1.19,-1.31,-1.31,-1.30
376.56,-2.41,-2.41,-1.11,-1.11,1.11,1.24,1.19,-1.30,-1.31,-1.31
380.33,-2.40,-2.40,-1.10,-1.10,1.10,1.24,1.19,-1.30,-1.30,-1.30
384.13,-2.38,-2.38,-1.08,-1.08,1.09,1.23,1.19,-1.29,-1.29,-1.30
387.97,-2.36,-2.37,-1.07,-1.08,1.08,1.22,1.19,-1.28,-1.29,-1.29
391.85,-2.35,-2.35,-1.08,-1.06,1.07,1.22,1.19,-1.28,-1.28,-1.27
395.77,-2.33,-2.33,-1.05,-1.06,1.06,1.21,1.20,-1.28,-1.28,-1.28
399.73,-2.31,-2.32,-1.04,-1.05,1.04,1.20,1.20,-1.27,-1.27,-1.27
403.72,-2.30,-2.30,-1.04,-1.03,1.03,1.20,1.20,-1.27,-1.26,-1.26
407.76,-2.28,-2.28,-1.02,-1.02,1.02,1.19,1.21,-1.26,-1.26,-1.26
411.84,-2.26,-2.26,-1.01,-1.01,1.01,1.18,1.21,-1.25,-1.25,-1.25
415.96,-2.25,-2.25,-1.01,-1.00,1.00,1.18,1.22,-1.25,-1.25,-1.25
420.12,-2.23,-2.23,-0.98,-0.99,0.99,1.17,1.22,-1.24,-1.24,-1.25
424.32,-2.22,-2.22,-0.98,-0.98,0.98,1.17,1.23,-1.24,-1.24,-1.24
428.56,-2.20,-2.20,-0.97,-0.97,0.97,1.16,1.23,-1.23,-1.23,-1.23
432.85,-2.18,-2.18,-0.96,-0.96,0.96,1.15,1.24,-1.22,-1.22,-1.22
437.18,-2.16,-2.16,-0.94,-0.94,0.95,1.14,1.25,-1.21,-1.22,-1.22
441.55,-2.14,-2.14,-0.93,-0.93,0.94,1.14,1.25,-1.20,-1.21,-1.21
445.96,-2.13,-2.13,-0.93,-0.92,0.93,1.13,1.26,-1.20,-1.20,-1.21
450.42,-2.11,-2.11,-0.92,-0.92,0.92,1.12,1.26,-1.19,-1.19,-1.19
454.93,-2.09,-2.09,-0.91,-0.91,0.91,1.12,1.26,-1.18,-1.18,-1.18
459.48,-2.07,-2.07,-0.90,-0.90,0.90,1.11,1.27,-1.17,-1.18,-1.17
464.07,-2.06,-2.06,-0.89,-0.89,0.89,1.10,1.27,-1.17,-1.17,-1.17
468.71,-2.04,-2.04,-0.88,-0.88,0.88,1.09,1.27,-1.16,-1.16,-1.16
473.40,-2.02,-2.03,-0.87,-0.87,0.87,1.09,1.27,-1.15,-1.15,-1.15
478.13,-2.01,-2.01,-0.87,-0.86,0.86,1.08,1.27,-1.15,-1.14,-1.14
482.91,-1.99,-1.99,-0.86,-0.86,0.86,1.07,1.26,-1.14,-1.14,-1.13
487.74,-1.97,-1.97,-0.85,-0.85,0.85,1.06,1.26,-1.12,-1.13,-1.13
492.62,-1.96,-1.96,-0.84,-0.84,0.84,1.06,1.25,-1.12,-1.11,-1.12
497.55,-1.94,-1.94,-0.83,-0.84,0.84,1.05,1.25,-1.10,-1.10,-1.11
502.52,-1.93,-1.93,-0.83,-0.83,0.84,1.04,1.24,-1.10,-1.09,-1.10
