frequency,raw,smoothed,error,error_smoothed,equalization,parametric_eq,fixed_band_eq,equalized_raw,equalized_smoothed,target
20.00,1.91,1.91,-5.72,-5.72,5.72,5.44,1.52,7.63,7.63,7.63
20.20,1.99,1.98,-5.64,-5.65,5.65,5.38,1.57,7.64,7.63,7.63
20.40,2.06,2.06,-5.57,-5.57,5.57,5.32,1.62,7.63,7.63,7.63
20.61,2.13,2.13,-5.50,-5.50,5.50,5.27,1.67,7.63,7.63,7.63
20.81,2.20,2.20,-5.43,-5.43,5.42,5.21,1.72,7.62,7.63,7.63
21.02,2.28,2.28,-5.35,-5.35,5.35,5.15,1.77,7.63,7.63,7.63
21.23,2.35,2.35,-5.28,-5.28,5.28,5.09,1.82,7.63,7.63,7.63
21.44,2.42,2.42,-5.21,-5.21,5.21,5.03,1.88,7.63,7.63,7.63
21.66,2.49,2.49,-5.14,-5.14,5.14,4.98,1.93,7.62,7.63,7.63
21.87,2.56,2.56,-5.06,-5.07,5.06,4.92,1.99,7.62,7.62,7.62
22.09,2.63,2.63,-4.99,-4.99,4.99,4.86,2.05,7.62,7.62,7.62
22.31,2.70,2.70,-4.92,-4.92,4.92,4.80,2.11,7.62,7.62,7.62
22.54,2.77,2.77,-4.85,-4.85,4.85,4.74,2.18,7.62,7.62,7.62
22.76,2.84,2.84,-4.78,-4.79,4.79,4.68,2.24,7.63,7.62,7.62
22.99,2.90,2.90,-4.72,-4.72,4.72,4.63,2.31,7.62,7.62,7.62
23.22,2.97,2.97,-4.65,-4.65,4.65,4.57,2.37,7.62,7.62,7.62
23.45,3.04,3.04,-4.58,-4.58,4.58,4.51,2.44,7.62,7.62,7.62
23.69,3.11,3.11,-4.51,-4.51,4.51,4.45,2.51,7.62,7.62,7.62
23.92,3.17,3.17,-4.45,-4.44,4.44,4.39,2.59,7.61,7.62,7.62
24.16,3.24,3.24,-4.38,-4.38,4.38,4.33,2.66,7.62,7.61,7.61
24.40,3.31,3.31,-4.30,-4.31,4.31,4.28,2.73,7.62,7.61,7.61
24.65,3.37,3.37,-4.24,-4.24,4.24,4.22,2.81,7.61,7.61,7.61
24.89,3.44,3.44,-4.17,-4.17,4.17,4.16,2.88,7.61,7.61,7.61
25.14,3.51,3.51,-4.10,-4.10,4.10,4.10,2.96,7.61,7.61,7.61
25.39,3.58,3.58,-4.03,-4.03,4.03,4.04,3.04,7.61,7.61,7.61
25.65,3.64,3.64,-3.97,-3.96,3.96,3.99,3.11,7.60,7.61,7.61
25.91,3.71,3.71,-3.90,-3.90,3.90,3.93,3.19,7.60,7.61,7.61
26.16,3.78,3.77,-3.82,-3.83,3.83,3.87,3.26,7.61,7.60,7.60
26.43,3.84,3.84,-3.76,-3.76,3.77,3.81,3.34,7.60,7.60,7.60
26.69,3.90,3.90,-3.70,-3.70,3.70,3.75,3.41,7.60,7.60,7.60
26.96,3.96,3.96,-3.64,-3.64,3.64,3.70,3.48,7.60,7.60,7.60
27.23,4.02,4.02,-3.58,-3.58,3.58,3.64,3.55,7.60,7.60,7.60
27.50,4.07,4.07,-3.53,-3.52,3.52,3.58,3.62,7.59,7.59,7.60
27.77,4.13,4.13,-3.46,-3.47,3.46,3.53,3.68,7.59,7.59,7.59
28.05,4.18,4.18,-3.41,-3.41,3.41,3.47,3.75,7.59,7.59,7.59
28.33,4.24,4.24,-3.35,-3.35,3.35,3.41,3.80,7.59,7.59,7.59
28.62,4.29,4.29,-3.30,-3.30,3.30,3.35,3.86,7.58,7.59,7.59
28.90,4.35,4.35,-3.24,-3.24,3.24,3.30,3.90,7.59,7.59,7.58
29.19,4.40,4.40,-3.18,-3.18,3.18,3.24,3.95,7.58,7.58,7.58
29.48,4.45,4.45,-3.13,-3.13,3.13,3.19,3.98,7.58,7.58,7.58
29.78,4.50,4.50,-3.08,-3.08,3.07,3.13,4.01,7.57,7.57,7.58
30.08,4.56,4.56,-3.02,-3.02,3.02,3.07,4.03,7.57,7.57,7.57
30.38,4.61,4.61,-2.96,-2.96,2.96,3.02,4.05,7.57,7.57,7.57
30.68,4.67,4.67,-2.90,-2.90,2.91,2.96,4.06,7.57,7.57,7.57
30.99,4.72,4.72,-2.85,-2.85,2.85,2.91,4.07,7.57,7.57,7.57
31.30,4.77,4.77,-2.79,-2.79,2.80,2.85,4.06,7.56,7.56,7.56
31.61,4.82,4.82,-2.74,-2.74,2.74,2.80,4.05,7.56,7.56,7.56
31.93,4.87,4.87,-2.69,-2.69,2.69,2.74,4.03,7.55,7.56,7.56
32.24,4.92,4.92,-2.63,-2.63,2.63,2.69,4.00,7.55,7.55,7.55
32.57,4.97,4.97,-2.58,-2.58,2.58,2.63,3.97,7.55,7.55,7.55
32.89,5.02,5.02,-2.53,-2.53,2.53,2.58,3.93,7.55,7.55,7.55
33.22,5.07,5.07,-2.47,-2.48,2.48,2.53,3.88,7.55,7.54,7.54
33.55,5.11,5.11,-2.43,-2.42,2.43,2.47,3.83,7.54,7.54,7.54
33.89,5.16,5.16,-2.38,-2.38,2.37,2.42,3.77,7.53,7.53,7.53
34.23,5.21,5.20,-2.32,-2.33,2.32,2.37,3.71,7.53,7.53,7.53
34.57,5.25,5.25,-2.28,-2.27,2.27,2.32,3.64,7.52,7.52,7.53
34.92,5.30,5.30,-2.22,-2.22,2.22,2.26,3.57,7.52,7.52,7.52
35.27,5.35,5.35,-2.17,-2.17,2.17,2.21,3.49,7.52,7.52,7.52
35.62,5.40,5.40,-2.11,-2.12,2.12,2.16,3.41,7.52,7.51,7.51
35.97,5.44,5.44,-2.07,-2.06,2.07,2.11,3.33,7.50,7.51,7.51
36.33,5.49,5.49,-2.01,-2.01,2.01,2.06,3.24,7.50,7.50,7.50
36.70,5.53,5.53,-1.97,-1.96,1.96,2.01,3.15,7.49,7.50,7.50
37.06,5.58,5.58,-1.91,-1.91,1.91,1.96,3.06,7.49,7.49,7.49
37.43,5.62,5.62,-1.86,-1.87,1.87,1.91,2.97,7.49,7.49,7.48
37.81,5.66,5.66,-1.82,-1.82,1.82,1.86,2.88,7.48,7.48,7.48
38.19,5.70,5.70,-1.77,-1.77,1.77,1.81,2.78,7.47,7.47,7.47
38.57,5.74,5.74,-1.73,-1.73,1.73,1.76,2.69,7.47,7.47,7.47
38.95,5.77,5.77,-1.69,-1.69,1.69,1.71,2.60,7.46,7.46,7.46
39.34,5.81,5.81,-1.64,-1.65,1.64,1.66,2.50,7.45,7.45,7.45
39.74,5.84,5.84,-1.61,-1.60,1.60,1.61,2.41,7.44,7.44,7.44
40.14,5.88,5.88,-1.56,-1.56,1.56,1.56,2.32,7.44,7.44,7.44
40.54,5.92,5.91,-1.51,-1.51,1.52,1.52,2.22,7.43,7.43,7.43
40.94,5.95,5.95,-1.47,-1.47,1.47,1.47,2.13,7.42,7.42,7.42
41.35,5.98,5.98,-1.43,-1.43,1.43,1.42,2.04,7.41,7.41,7.41
41.76,6.02,6.02,-1.38,-1.39,1.39,1.38,1.95,7.41,7.40,7.40
42.18,6.05,6.05,-1.35,-1.35,1.34,1.33,1.86,7.39,7.39,7.39
42.60,6.08,6.08,-1.31,-1.30,1.30,1.28,1.77,7.38,7.38,7.39
43.03,6.12,6.12,-1.26,-1.26,1.25,1.24,1.68,7.37,7.37,7.38
43.46,6.16,6.16,-1.21,-1.21,1.21,1.19,1.60,7.37,7.37,7.37
43.90,6.19,6.19,-1.17,-1.16,1.16,1.15,1.51,7.35,7.36,7.35
44.33,6.23,6.23,-1.11,-1.12,1.12,1.10,1.43,7.35,7.35,7.34
44.78,6.26,6.26,-1.07,-1.07,1.07,1.06,1.34,7.33,7.33,7.33
45.23,6.30,6.30,-1.02,-1.02,1.03,1.02,1.26,7.32,7.32,7.32
45.68,6.33,6.33,-0.98,-0.98,0.98,0.97,1.18,7.31,7.31,7.31
46.13,6.36,6.36,-0.94,-0.94,0.93,0.93,1.10,7.29,7.29,7.30
46.60,6.39,6.39,-0.89,-0.89,0.89,0.89,1.02,7.28,7.28,7.28
47.06,6.43,6.43,-0.84,-0.84,0.84,0.84,0.94,7.27,7.27,7.27
47.53,6.46,6.46,-0.80,-0.80,0.80,0.80,0.87,7.26,7.26,7.26
48.01,6.49,6.49,-0.75,-0.75,0.76,0.76,0.79,7.25,7.25,7.24
48.49,6.52,6.52,-0.71,-0.71,0.71,0.72,0.72,7.23,7.23,7.23
48.97,6.54,6.54,-0.67,-0.67,0.67,0.68,0.65,7.21,7.21,7.21
49.46,6.57,6.57,-0.63,-0.63,0.62,0.64,0.57,7.19,7.19,7.20
49.96,6.60,6.60,-0.58,-0.58,0.58,0.59,0.50,7.18,7.18,7.18
50.46,6.63,6.63,-0.53,-0.53,0.54,0.55,0.43,7.16,7.16,7.16
50.96,6.66,6.66,-0.49,-0.49,0.49,0.51,0.37,7.15,7.15,7.15
51.47,6.68,6.68,-0.45,-0.45,0.45,0.47,0.30,7.13,7.13,7.13
51.99,6.70,6.70,-0.41,-0.41,0.41,0.43,0.23,7.10,7.11,7.11
52.51,6.73,6.73,-0.36,-0.36,0.36,0.39,0.17,7.09,7.09,7.09
53.03,6.75,6.75,-0.32,-0.32,0.32,0.36,0.10,7.07,7.07,7.07
53.56,6.77,6.77,-0.28,-0.28,0.28,0.32,0.04,7.05,7.05,7.05
54.10,6.79,6.79,-0.24,-0.24,0.24,0.28,-0.02,7.03,7.03,7.03
54.64,6.80,6.80,-0.21,-0.20,0.20,0.24,-0.08,7.00,7.01,7.01
55.18,6.82,6.82,-0.16,-0.16,0.16,0.20,-0.14,6.98,6.98,6.98
55.74,6.84,6.84,-0.12,-0.12,0.12,0.16,-0.19,6.96,6.96,6.96
56.29,6.85,6.85,-0.09,-0.09,0.09,0.12,-0.25,6.94,6.94,6.94
56.86,6.86,6.86,-0.05,-0.05,0.05,0.09,-0.30,6.91,6.91,6.91
57.42,6.87,6.87,-0.02,-0.01,0.01,0.05,-0.35,6.88,6.88,6.89
58.00,6.89,6.89,0.03,0.03,-0.03,0.01,-0.40,6.86,6.86,6.86
58.58,6.90,6.90,0.07,0.06,-0.06,-0.03,-0.44,6.84,6.83,6.83
59.16,6.90,6.90,0.10,0.10,-0.10,-0.06,-0.49,6.80,6.80,6.80
59.76,6.91,6.91,0.13,0.13,-0.14,-0.10,-0.53,6.77,6.77,6.77
60.35,6.92,6.92,0.17,0.17,-0.17,-0.14,-0.57,6.75,6.74,6.74
60.96,6.92,6.92,0.20,0.21,-0.21,-0.18,-0.61,6.71,6.71,6.71
61.57,6.93,6.93,0.25,0.24,-0.24,-0.21,-0.64,6.69,6.68,6.68
62.18,6.93,6.93,0.28,0.28,-0.28,-0.25,-0.67,6.65,6.65,6.65
62.80,6.93,6.93,0.31,0.31,-0.31,-0.29,-0.71,6.62,6.62,6.62
63.43,6.93,6.93,0.35,0.35,-0.35,-0.32,-0.73,6.58,6.58,6.58
64.07,6.93,6.93,0.38,0.38,-0.38,-0.36,-0.76,6.55,6.55,6.55
64.71,6.92,6.92,0.41,0.41,-0.41,-0.40,-0.79,6.51,6.51,6.51
65.35,6.92,6.92,0.44,0.44,-0.44,-0.43,-0.81,6.48,6.47,6.47
66.01,6.91,6.91,0.47,0.48,-0.48,-0.47,-0.83,6.43,6.44,6.44
66.67,6.91,6.91,0.51,0.51,-0.51,-0.51,-0.85,6.40,6.40,6.40
67.33,6.90,6.90,0.54,0.54,-0.54,-0.54,-0.86,6.36,6.36,6.36
68.01,6.89,6.89,0.57,0.57,-0.57,-0.58,-0.88,6.32,6.32,6.32
68.69,6.88,6.88,0.60,0.61,-0.61,-0.61,-0.89,6.27,6.27,6.27
69.37,6.87,6.87,0.64,0.64,-0.64,-0.65,-0.91,6.23,6.23,6.23
70.07,6.86,6.86,0.67,0.67,-0.67,-0.69,-0.92,6.19,6.19,6.19
70.77,6.84,6.84,0.70,0.70,-0.70,-0.72,-0.93,6.14,6.14,6.14
71.48,6.83,6.83,0.73,0.73,-0.73,-0.76,-0.94,6.10,6.10,6.10
72.19,6.81,6.81,0.76,0.76,-0.76,-0.79,-0.95,6.05,6.05,6.05
72.91,6.80,6.80,0.80,0.80,-0.80,-0.83,-0.96,6.00,6.00,6.00
73.64,6.78,6.78,0.83,0.83,-0.83,-0.87,-0.97,5.95,5.95,5.95
74.38,6.76,6.76,0.86,0.86,-0.86,-0.90,-0.98,5.90,5.90,5.90
75.12,6.74,6.74,0.89,0.89,-0.89,-0.94,-0.99,5.85,5.85,5.85
75.87,6.72,6.72,0.92,0.92,-0.92,-0.97,-1.00,5.80,5.80,5.80
76.63,6.70,6.70,0.95,0.95,-0.95,-1.01,-1.00,5.75,5.74,5.74
77.40,6.68,6.68,0.99,0.99,-0.99,-1.04,-1.01,5.69,5.69,5.69
78.17,6.65,6.65,1.01,1.02,-1.02,-1.08,-1.02,5.63,5.64,5.63
78.95,6.63,6.63,1.05,1.05,-1.05,-1.11,-1.03,5.58,5.58,5.58
79.74,6.60,6.60,1.08,1.08,-1.08,-1.14,-1.04,5.52,5.52,5.52
80.54,6.57,6.57,1.11,1.11,-1.11,-1.18,-1.05,5.46,5.46,5.46
81.35,6.55,6.55,1.15,1.14,-1.14,-1.21,-1.07,5.41,5.40,5.40
82.16,6.52,6.52,1.18,1.18,-1.17,-1.25,-1.08,5.35,5.35,5.34
82.98,6.49,6.49,1.21,1.21,-1.20,-1.28,-1.09,5.28,5.29,5.28
83.81,6.46,6.46,1.24,1.24,-1.24,-1.31,-1.11,5.22,5.22,5.22
84.65,6.42,6.42,1.26,1.27,-1.27,-1.34,-1.12,5.15,5.16,5.16
85.50,6.39,6.39,1.30,1.30,-1.30,-1.38,-1.14,5.09,5.09,5.09
86.35,6.36,6.36,1.33,1.33,-1.33,-1.41,-1.16,5.03,5.03,5.03
87.22,6.32,6.32,1.35,1.36,-1.36,-1.44,-1.17,4.96,4.96,4.96
88.09,6.29,6.29,1.39,1.39,-1.39,-1.47,-1.19,4.90,4.90,4.90
88.97,6.25,6.25,1.42,1.42,-1.42,-1.50,-1.21,4.83,4.83,4.83
89.86,6.22,6.22,1.45,1.45,-1.45,-1.53,-1.23,4.77,4.77,4.76
90.76,6.18,6.18,1.48,1.48,-1.48,-1.56,-1.26,4.70,4.70,4.70
91.66,6.14,6.14,1.51,1.51,-1.51,-1.58,-1.28,4.63,4.63,4.63
92.58,6.10,6.10,1.54,1.54,-1.54,-1.61,-1.30,4.56,4.56,4.56
93.51,6.06,6.06,1.57,1.57,-1.57,-1.64,-1.33,4.49,4.49,4.49
94.44,6.02,6.02,1.60,1.60,-1.60,-1.66,-1.36,4.42,4.42,4.42
95.39,5.97,5.97,1.62,1.63,-1.62,-1.69,-1.38,4.35,4.35,4.35
96.34,5.93,5.93,1.65,1.65,-1.65,-1.71,-1.41,4.28,4.28,4.28
97.30,5.88,5.88,1.67,1.67,-1.67,-1.73,-1.44,4.21,4.21,4.21
98.28,5.83,5.83,1.70,1.70,-1.70,-1.75,-1.47,4.13,4.13,4.13
99.26,5.78,5.78,1.72,1.71,-1.72,-1.77,-1.50,4.06,4.06,4.06
100.25,5.72,5.72,1.73,1.73,-1.74,-1.79,-1.53,3.98,3.99,3.99
101.25,5.67,5.67,1.75,1.75,-1.76,-1.81,-1.56,3.91,3.91,3.92
102.27,5.62,5.61,1.78,1.77,-1.77,-1.83,-1.59,3.85,3.84,3.84
103.29,5.56,5.56,1.79,1.79,-1.79,-1.84,-1.62,3.77,3.77,3.77
104.32,5.50,5.50,1.80,1.81,-1.81,-1.85,-1.65,3.69,3.70,3.70
105.37,5.45,5.45,1.83,1.82,-1.82,-1.87,-1.68,3.63,3.62,3.62
106.42,5.39,5.39,1.84,1.84,-1.84,-1.88,-1.71,3.55,3.55,3.55
107.48,5.33,5.33,1.85,1.85,-1.85,-1.89,-1.74,3.48,3.48,3.48
108.56,5.27,5.27,1.86,1.86,-1.86,-1.89,-1.76,3.41,3.40,3.40
109.64,5.20,5.20,1.87,1.87,-1.87,-1.90,-1.79,3.33,3.33,3.33
110.74,5.14,5.14,1.88,1.88,-1.88,-1.90,-1.81,3.26,3.26,3.26
111.85,5.08,5.08,1.89,1.89,-1.89,-1.90,-1.83,3.19,3.19,3.19
112.97,5.01,5.01,1.89,1.89,-1.89,-1.90,-1.85,3.12,3.12,3.12
114.10,4.94,4.94,1.90,1.90,-1.90,-1.90,-1.87,3.04,3.05,3.04
115.24,4.87,4.87,1.90,1.90,-1.90,-1.90,-1.89,2.97,2.97,2.97
116.39,4.80,4.80,1.90,1.90,-1.90,-1.89,-1.90,2.90,2.90,2.90
117.55,4.72,4.72,1.89,1.89,-1.89,-1.88,-1.91,2.83,2.83,2.83
118.73,4.65,4.65,1.89,1.89,-1.89,-1.87,-1.92,2.76,2.76,2.76
119.92,4.57,4.57,1.88,1.88,-1.88,-1.86,-1.92,2.69,2.69,2.69
121.12,4.49,4.49,1.87,1.87,-1.87,-1.84,-1.92,2.62,2.62,2.62
122.33,4.41,4.41,1.85,1.85,-1.85,-1.82,-1.91,2.56,2.55,2.55
123.55,4.32,4.32,1.83,1.84,-1.84,-1.80,-1.90,2.48,2.49,2.49
124.79,4.24,4.24,1.82,1.82,-1.82,-1.78,-1.89,2.42,2.42,2.42
126.03,4.15,4.15,1.79,1.80,-1.79,-1.75,-1.87,2.35,2.35,2.35
127.29,4.06,4.06,1.77,1.77,-1.77,-1.73,-1.85,2.29,2.29,2.29
128.57,3.97,3.97,1.75,1.74,-1.74,-1.70,-1.83,2.23,2.23,2.22
129.85,3.87,3.87,1.71,1.71,-1.71,-1.66,-1.80,2.16,2.16,2.16
131.15,3.77,3.77,1.67,1.67,-1.67,-1.62,-1.77,2.09,2.10,2.10
132.46,3.67,3.67,1.63,1.63,-1.64,-1.58,-1.73,2.03,2.03,2.04
133.79,3.57,3.57,1.60,1.59,-1.60,-1.54,-1.69,1.97,1.97,1.97
135.12,3.47,3.47,1.56,1.55,-1.55,-1.49,-1.65,1.91,1.91,1.91
136.48,3.36,3.36,1.51,1.51,-1.51,-1.45,-1.60,1.85,1.85,1.85
137.84,3.26,3.26,1.46,1.46,-1.46,-1.39,-1.55,1.80,1.80,1.80
139.22,3.15,3.15,1.41,1.41,-1.41,-1.34,-1.50,1.74,1.74,1.74
140.61,3.04,3.04,1.36,1.36,-1.36,-1.28,-1.44,1.68,1.68,1.68
142.02,2.92,2.92,1.29,1.30,-1.30,-1.22,-1.39,1.62,1.63,1.63
143.44,2.81,2.81,1.24,1.24,-1.24,-1.15,-1.33,1.57,1.57,1.57
144.87,2.69,2.69,1.17,1.17,-1.17,-1.09,-1.26,1.52,1.52,1.52
146.32,2.56,2.56,1.09,1.10,-1.10,-1.01,-1.20,1.46,1.47,1.46
147.78,2.44,2.44,1.03,1.02,-1.02,-0.94,-1.14,1.42,1.41,1.41
149.26,2.31,2.31,0.95,0.94,-0.94,-0.86,-1.07,1.37,1.36,1.36
150.75,2.17,2.17,0.86,0.86,-0.86,-0.78,-1.00,1.31,1.31,1.31
152.26,2.04,2.04,0.77,0.77,-0.77,-0.70,-0.93,1.27,1.26,1.26
153.78,1.90,1.90,0.68,0.68,-0.68,-0.61,-0.86,1.22,1.22,1.22
155.32,1.76,1.76,0.59,0.59,-0.59,-0.52,-0.79,1.17,1.17,1.17
156.88,1.62,1.62,0.49,0.49,-0.49,-0.43,-0.72,1.13,1.12,1.13
158.44,1.47,1.47,0.39,0.39,-0.40,-0.34,-0.65,1.07,1.08,1.08
160.03,1.33,1.33,0.29,0.29,-0.29,-0.24,-0.58,1.04,1.03,1.04
161.63,1.18,1.18,0.19,0.19,-0.19,-0.14,-0.51,0.99,0.99,0.98
163.24,1.03,1.03,0.09,0.09,-0.08,-0.04,-0.44,0.95,0.95,0.94
164.88,0.88,0.88,-0.02,-0.03,0.03,0.06,-0.36,0.91,0.91,0.90
166.53,0.72,0.72,-0.14,-0.14,0.14,0.17,-0.29,0.86,0.86,0.86
168.19,0.57,0.57,-0.26,-0.26,0.26,0.27,-0.22,0.83,0.83,0.83
169.87,0.41,0.41,-0.38,-0.38,0.38,0.38,-0.14,0.78,0.79,0.79
171.57,0.26,0.26,-0.49,-0.50,0.49,0.49,-0.07,0.75,0.75,0.75
173.29,0.10,0.10,-0.62,-0.61,0.62,0.60,0.00,0.71,0.72,0.72
175.02,-0.05,-0.05,-0.73,-0.73,0.74,0.71,0.08,0.68,0.68,0.68
176.77,-0.20,-0.20,-0.85,-0.85,0.85,0.82,0.15,0.65,0.65,0.65
178.54,-0.36,-0.36,-0.98,-0.97,0.97,0.92,0.23,0.61,0.62,0.62
180.32,-0.50,-0.51,-1.09,-1.09,1.09,1.03,0.30,0.59,0.58,0.58
182.13,-0.65,-0.65,-1.20,-1.20,1.20,1.13,0.37,0.55,0.55,0.55
183.95,-0.79,-0.79,-1.31,-1.31,1.31,1.24,0.45,0.52,0.52,0.52
185.79,-0.92,-0.92,-1.41,-1.42,1.42,1.34,0.52,0.50,0.49,0.49
187.65,-1.05,-1.05,-1.52,-1.52,1.52,1.43,0.60,0.47,0.47,0.47
189.52,-1.17,-1.17,-1.61,-1.61,1.61,1.52,0.67,0.44,0.44,0.44
191.42,-1.29,-1.29,-1.70,-1.70,1.70,1.61,0.74,0.41,0.41,0.41
193.33,-1.39,-1.39,-1.78,-1.78,1.78,1.69,0.82,0.39,0.38,0.39
195.27,-1.49,-1.49,-1.85,-1.85,1.85,1.77,0.89,0.36,0.36,0.36
197.22,-1.58,-1.58,-1.92,-1.91,1.91,1.85,0.97,0.33,0.33,0.34
199.19,-1.65,-1.65,-1.96,-1.97,1.96,1.91,1.04,0.31,0.31,0.31
201.18,-1.72,-1.72,-2.01,-2.01,2.01,1.97,1.11,0.29,0.29,0.29
203.19,-1.78,-1.78,-2.05,-2.05,2.05,2.03,1.18,0.27,0.27,0.27
205.23,-1.83,-1.83,-2.08,-2.08,2.08,2.07,1.26,0.24,0.25,0.25
207.28,-1.87,-1.87,-2.10,-2.10,2.10,2.12,1.33,0.22,0.23,0.23
209.35,-1.90,-1.90,-2.11,-2.11,2.11,2.15,1.40,0.21,0.21,0.21
211.44,-1.93,-1.93,-2.12,-2.12,2.11,2.18,1.46,0.18,0.19,0.19
213.56,-1.95,-1.95,-2.12,-2.12,2.11,2.20,1.53,0.16,0.16,0.17
215.69,-1.96,-1.96,-2.11,-2.11,2.11,2.21,1.60,0.15,0.14,0.15
217.85,-1.97,-1.97,-2.10,-2.10,2.10,2.22,1.66,0.13,0.13,0.13
220.03,-1.97,-1.97,-2.08,-2.08,2.08,2.22,1.72,0.11,0.12,0.11
222.23,-1.96,-1.97,-2.06,-2.06,2.07,2.21,1.78,0.11,0.10,0.10
224.45,-1.96,-1.96,-2.04,-2.04,2.05,2.21,1.84,0.09,0.09,0.08
226.70,-1.96,-1.96,-2.03,-2.02,2.03,2.19,1.89,0.07,0.07,0.07
228.96,-1.95,-1.96,-2.00,-2.01,2.01,2.17,1.95,0.06,0.05,0.05
231.25,-1.95,-1.95,-1.99,-1.99,1.98,2.15,2.00,0.03,0.03,0.04
233.57,-1.95,-1.95,-1.97,-1.97,1.96,2.12,2.04,0.01,0.01,0.02
235.90,-1.94,-1.94,-1.94,-1.94,1.94,2.09,2.08,-0.00,-0.00,-0.00
238.26,-1.93,-1.93,-1.92,-1.91,1.92,2.06,2.12,-0.02,-0.01,-0.01
240.64,-1.91,-1.91,-1.88,-1.89,1.89,2.03,2.15,-0.02,-0.02,-0.03
243.05,-1.90,-1.90,-1.86,-1.86,1.87,1.99,2.18,-0.03,-0.03,-0.04
245.48,-1.89,-1.89,-1.84,-1.84,1.84,1.95,2.21,-0.05,-0.05,-0.05
247.93,-1.88,-1.88,-1.82,-1.82,1.82,1.91,2.23,-0.06,-0.06,-0.06
250.41,-1.87,-1.87,-1.80,-1.79,1.79,1.87,2.25,-0.08,-0.07,-0.07
252.92,-1.85,-1.86,-1.77,-1.77,1.77,1.83,2.26,-0.08,-0.09,-0.08
255.45,-1.84,-1.84,-1.75,-1.75,1.75,1.79,2.27,-0.09,-0.09,-0.09
258.00,-1.83,-1.83,-1.73,-1.72,1.73,1.75,2.27,-0.11,-0.10,-0.10
260.58,-1.81,-1.82,-1.70,-1.70,1.70,1.71,2.27,-0.11,-0.11,-0.11
263.19,-1.80,-1.80,-1.68,-1.68,1.68,1.67,2.27,-0.12,-0.12,-0.12
265.82,-1.79,-1.79,-1.66,-1.66,1.65,1.63,2.26,-0.14,-0.13,-0.13
268.48,-1.77,-1.77,-1.63,-1.63,1.63,1.60,2.25,-0.14,-0.14,-0.14
271.16,-1.76,-1.76,-1.61,-1.61,1.61,1.56,2.24,-0.15,-0.15,-0.15
273.87,-1.74,-1.74,-1.59,-1.59,1.59,1.52,2.22,-0.15,-0.16,-0.16
276.61,-1.73,-1.73,-1.57,-1.56,1.57,1.49,2.20,-0.16,-0.16,-0.16
279.38,-1.71,-1.71,-1.54,-1.54,1.55,1.46,2.18,-0.16,-0.16,-0.17
282.17,-1.70,-1.70,-1.52,-1.53,1.53,1.43,2.15,-0.17,-0.17,-0.18
284.99,-1.69,-1.69,-1.52,-1.52,1.52,1.40,2.12,-0.17,-0.17,-0.17
287.84,-1.68,-1.68,-1.51,-1.51,1.50,1.37,2.09,-0.18,-0.18,-0.17
290.72,-1.67,-1.67,-1.49,-1.49,1.49,1.34,2.07,-0.18,-0.18,-0.18
293.63,-1.66,-1.66,-1.48,-1.48,1.48,1.32,2.03,-0.18,-0.18,-0.18
296.57,-1.64,-1.64,-1.46,-1.46,1.46,1.29,2.00,-0.18,-0.18,-0.18
299.53,-1.63,-1.63,-1.46,-1.45,1.45,1.27,1.97,-0.18,-0.18,-0.18
302.53,-1.61,-1.61,-1.43,-1.44,1.43,1.25,1.94,-0.18,-0.18,-0.18
305.55,-1.60,-1.60,-1.42,-1.42,1.41,1.23,1.90,-0.19,-0.18,-0.18
308.61,-1.57,-1.57,-1.39,-1.40,1.39,1.21,1.87,-0.18,-0.18,-0.18
311.69,-1.55,-1.55,-1.37,-1.37,1.37,1.20,1.84,-0.18,-0.18,-0.18
314.81,-1.53,-1.53,-1.35,-1.35,1.35,1.18,1.80,-0.18,-0.18,-0.18
317.96,-1.50,-1.50,-1.33,-1.32,1.32,1.17,1.77,-0.18,-0.18,-0.18
321.14,-1.47,-1.47,-1.29,-1.29,1.29,1.15,1.74,-0.18,-0.18,-0.18
324.35,-1.44,-1.44,-1.27,-1.27,1.27,1.14,1.71,-0.17,-0.17,-0.17
327.59,-1.41,-1.41,-1.24,-1.24,1.24,1.13,1.68,-0.17,-0.17,-0.17
330.87,-1.38,-1.38,-1.21,-1.21,1.21,1.13,1.65,-0.17,-0.17,-0.17
334.18,-1.35,-1.35,-1.18,-1.18,1.18,1.12,1.62,-0.17,-0.17,-0.17
337.52,-1.32,-1.32,-1.15,-1.15,1.16,1.11,1.59,-0.16,-0.16,-0.17
340.90,-1.29,-1.29,-1.13,-1.13,1.13,1.11,1.56,-0.16,-0.16,-0.16
344.30,-1.27,-1.27,-1.11,-1.11,1.11,1.10,1.54,-0.16,-0.16,-0.16
347.75,-1.24,-1.24,-1.09,-1.09,1.09,1.10,1.51,-0.15,-0.15,-0.15
351.23,-1.22,-1.22,-1.07,-1.07,1.07,1.10,1.49,-0.15,-0.15,-0.15
354.74,-1.19,-1.19,-1.05,-1.05,1.05,1.09,1.47,-0.14,-0.14,-0.14
358.28,-1.17,-1.17,-1.03,-1.03,1.03,1.09,1.45,-0.14,-0.14,-0.14
361.87,-1.15,-1.15,-1.02,-1.02,1.02,1.09,1.43,-0.13,-0.13,-0.13
365.49,-1.13,-1.13,-1.01,-1.00,1.00,1.10,1.41,-0.13,-0.13,-0.13
369.14,-1.11,-1.11,-0.98,-0.99,0.99,1.10,1.39,-0.12,-0.12,-0.13
372.83,-1.09,-1.09,-0.98,-0.97,0.97,1.10,1.37,-0.12,-0.12,-0.11
376.56,-1.07,-1.07,-0.96,-0.96,0.96,1.10,1.36,-0.11,-0.11,-0.11
380.33,-1.06,-1.06,-0.96,-0.95,0.95,1.11,1.34,-0.11,-0.11,-0.11
384.13,-1.05,-1.05,-0.94,-0.95,0.95,1.11,1.33,-0.10,-0.10,-0.11
387.97,-1.04,-1.04,-0.94,-0.94,0.95,1.11,1.32,-0.10,-0.09,-0.10
391.85,-1.03,-1.03,-0.95,-0.94,0.94,1.12,1.31,-0.09,-0.09,-0.08
395.77,-1.03,-1.03,-0.95,-0.95,0.95,1.12,1.30,-0.08,-0.08,-0.08
399.73,-1.03,-1.03,-0.96,-0.95,0.95,1.13,1.29,-0.08,-0.08,-0.08
403.72,-1.03,-1.03,-0.96,-0.96,0.96,1.14,1.28,-0.07,-0.07,-0.07
407.76,-1.03,-1.03,-0.96,-0.97,0.97,1.14,1.27,-0.06,-0.06,-0.07
411.84,-1.04,-1.04,-0.98,-0.98,0.98,1.15,1.27,-0.06,-0.06,-0.06
415.96,-1.05,-1.05,-1.00,-0.99,0.99,1.16,1.26,-0.06,-0.06,-0.05
420.12,-1.06,-1.06,-1.01,-1.01,1.01,1.16,1.26,-0.06,-0.06,-0.05
424.32,-1.07,-1.07,-1.02,-1.03,1.02,1.17,1.25,-0.05,-0.05,-0.05
428.56,-1.08,-1.08,-1.04,-1.04,1.03,1.18,1.25,-0.05,-0.04,-0.04
432.85,-1.08,-1.08,-1.05,-1.05,1.05,1.19,1.24,-0.03,-0.03,-0.03
437.18,-1.09,-1.09,-1.06,-1.06,1.07,1.20,1.24,-0.02,-0.02,-0.03
441.55,-1.10,-1.10,-1.08,-1.08,1.09,1.20,1.24,-0.01,-0.01,-0.02
445.96,-1.11,-1.11,-1.10,-1.10,1.11,1.21,1.23,-0.00,-0.01,-0.01
450.42,-1.13,-1.13,-1.14,-1.13,1.13,1.22,1.23,-0.00,0.00,0.01
454.93,-1.14,-1.14,-1.16,-1.15,1.15,1.23,1.23,0.01,0.01,0.01
459.48,-1.15,-1.16,-1.17,-1.18,1.17,1.24,1.23,0.02,0.02,0.02
464.07,-1.17,-1.17,-1.19,-1.19,1.19,1.25,1.22,0.02,0.03,0.02
468.71,-1.18,-1.18,-1.21,-1.21,1.21,1.25,1.22,0.03,0.03,0.03
473.40,-1.19,-1.20,-1.23,-1.23,1.24,1.26,1.22,0.04,0.04,0.04
478.13,-1.21,-1.21,-1.26,-1.26,1.26,1.27,1.21,0.05,0.05,0.05
482.91,-1.22,-1.22,-1.28,-1.28,1.28,1.28,1.21,0.06,0.06,0.06
487.74,-1.23,-1.23,-1.30,-1.30,1.30,1.29,1.21,0.07,0.07,0.07
492.62,-1.24,-1.24,-1.32,-1.32,1.32,1.29,1.20,0.08,0.08,0.08
497.55,-1.25,-1.25,-1.34,-1.34,1.34,1.30,1.20,0.09,0.09,0.08
502.52,-1.26,-1.26,-1.35,-1.36,1.36,1.31,1.19,0.10,0.10,0.09
507.55,-1.27,-1.27,-1.38,-1.38,1.38,1.32,1.19,0.11,0.11,0.11
512.62,-1.28,-1.28,-1.40,-1.40,1.40,1.32,1.18,0.12,0.12,0.12
517.75,-1.28,-1.28,-1.41,-1.42,1.41,1.33,1.17,0.13,0.13,0.13
522.93,-1.29,-1.29,-1.43,-1.43,1.43,1.34,1.17,0.14,0.14,0.14
528.16,-1.29,-1.29,-1.44,-1.44,1.44,1.34,1.16,0.15,0.15,0.15
