frequency,raw
20.00,-5.32
20.20,-4.80
20.40,-4.28
20.61,-3.76
20.81,-3.11
21.02,-2.45
21.23,-1.79
21.44,-1.16
21.66,-0.59
21.87,-0.05
22.09,0.42
22.31,0.83
22.54,1.21
22.76,1.54
22.99,1.84
23.22,2.12
23.45,2.39
23.69,2.66
23.92,2.94
24.16,3.23
24.40,3.54
24.65,3.86
24.89,4.21
25.14,4.55
25.39,4.90
25.65,5.23
25.91,5.55
26.16,5.85
26.43,6.14
26.69,6.45
26.96,6.75
27.23,7.08
27.50,7.43
27.77,7.78
28.05,8.11
28.33,8.41
28.62,8.66
28.90,8.86
29.19,8.98
29.48,9.08
29.78,9.11
30.08,9.13
30.38,9.14
30.68,9.16
30.99,9.20
31.30,9.28
31.61,9.38
31.93,9.52
32.24,9.71
32.57,9.92
32.89,10.20
33.22,10.54
33.55,10.90
33.89,11.29
34.23,11.65
34.57,11.98
34.92,12.20
35.27,12.30
35.62,12.32
35.97,12.26
36.33,12.21
36.70,12.24
37.06,12.39
37.43,12.71
37.81,13.09
38.19,13.50
38.57,13.79
38.95,13.96
39.34,14.06
39.74,14.10
40.14,14.12
40.54,14.16
40.94,14.26
41.35,14.39
41.76,14.53
42.18,14.66
42.60,14.77
43.03,14.84
43.46,14.87
43.90,14.87
44.33,14.84
44.78,14.78
45.23,14.70
45.68,14.64
46.13,14.59
46.60,14.58
47.06,14.60
47.53,14.63
48.01,14.67
48.49,14.69
48.97,14.69
49.46,14.66
49.96,14.61
50.46,14.55
50.96,14.49
51.47,14.42
51.99,14.35
52.51,14.27
53.03,14.16
53.56,14.04
54.10,13.92
54.64,13.80
55.18,13.70
55.74,13.62
56.29,13.56
56.86,13.50
57.42,13.45
58.00,13.39
58.58,13.32
59.16,13.25
59.76,13.17
60.35,13.10
60.96,13.04
61.57,12.98
62.18,12.92
62.80,12.89
63.43,12.87
64.07,12.86
64.71,12.86
65.35,12.85
66.01,12.84
66.67,12.83
67.33,12.81
68.01,12.79
68.69,12.77
69.37,12.76
70.07,12.74
70.77,12.73
71.48,12.72
72.19,12.72
72.91,12.71
73.64,12.70
74.38,12.68
75.12,12.67
75.87,12.65
76.63,12.64
77.40,12.64
78.17,12.63
78.95,12.63
79.74,12.63
80.54,12.64
81.35,12.66
82.16,12.68
82.98,12.70
83.81,12.73
84.65,12.74
85.50,12.75
86.35,12.77
87.22,12.78
88.09,12.79
88.97,12.80
89.86,12.80
90.76,12.81
91.66,12.81
92.58,12.82
93.51,12.83
94.44,12.84
95.39,12.84
96.34,12.85
97.30,12.87
98.28,12.88
99.26,12.89
100.25,12.91
101.25,12.91
102.27,12.92
103.29,12.92
104.32,12.92
105.37,12.92
106.42,12.92
107.48,12.93
108.56,12.92
109.64,12.91
110.74,12.89
111.85,12.86
112.97,12.84
114.10,12.81
115.24,12.78
116.39,12.75
117.55,12.72
118.73,12.70
119.92,12.67
121.12,12.64
122.33,12.60
123.55,12.55
124.79,12.51
126.03,12.45
127.29,12.40
128.57,12.33
129.85,12.26
131.15,12.19
132.46,12.12
133.79,12.05
135.12,11.98
136.48,11.90
137.84,11.82
139.22,11.73
140.61,11.62
142.02,11.50
143.44,11.38
144.87,11.26
146.32,11.13
147.78,11.00
149.26,10.87
150.75,10.73
152.26,10.58
153.78,10.43
155.32,10.28
156.88,10.11
158.44,9.95
160.03,9.78
161.63,9.61
163.24,9.44
164.88,9.26
166.53,9.07
168.19,8.88
169.87,8.68
171.57,8.48
173.29,8.27
175.02,8.05
176.77,7.83
178.54,7.60
180.32,7.37
182.13,7.12
183.95,6.86
185.79,6.60
187.65,6.34
189.52,6.07
191.42,5.80
193.33,5.53
195.27,5.28
197.22,5.05
199.19,4.81
201.18,4.59
203.19,4.38
205.23,4.21
207.28,4.07
209.35,3.96
211.44,3.87
213.56,3.80
215.69,3.73
217.85,3.67
220.03,3.60
222.23,3.55
224.45,3.49
226.70,3.45
228.96,3.41
231.25,3.38
233.57,3.37
235.90,3.36
238.26,3.38
240.64,3.40
243.05,3.44
245.48,3.51
247.93,3.59
250.41,3.68
252.92,3.77
255.45,3.86
258.00,3.95
260.58,4.05
263.19,4.16
265.82,4.27
268.48,4.38
271.16,4.48
273.87,4.58
276.61,4.69
279.38,4.78
282.17,4.87
284.99,4.97
287.84,5.06
290.72,5.14
293.63,5.23
296.57,5.32
299.53,5.41
302.53,5.50
305.55,5.58
308.61,5.67
311.69,5.75
314.81,5.83
317.96,5.91
321.14,5.98
324.35,6.05
327.59,6.10
330.87,6.16
334.18,6.20
337.52,6.25
340.90,6.29
344.30,6.33
347.75,6.36
351.23,6.39
354.74,6.42
358.28,6.43
361.87,6.43
365.49,6.43
369.14,6.42
372.83,6.41
376.56,6.39
380.33,6.37
384.13,6.36
387.97,6.35
391.85,6.34
395.77,6.33
399.73,6.33
403.72,6.33
407.76,6.32
411.84,6.30
415.96,6.27
420.12,6.22
424.32,6.16
428.56,6.10
432.85,6.04
437.18,5.97
441.55,5.91
445.96,5.84
450.42,5.77
454.93,5.70
459.48,5.61
464.07,5.53
468.71,5.43
473.40,5.33
478.13,5.23
482.91,5.12
487.74,5.00
492.62,4.88
497.55,4.76
502.52,4.65
507.55,4.55
512.62,4.47
517.75,4.41
522.93,4.35
528.16,4.31
533.44,4.28
538.77,4.25
544.16,4.23
549.60,4.22
555.10,4.22
560.65,4.23
566.25,4.23
571.92,4.24
577.64,4.24
583.41,4.23
589.25,4.23
595.14,4.21
601.09,4.19
607.10,4.17
613.17,4.14
619.30,4.12
625.50,4.09
631.75,4.07
638.07,4.06
644.45,4.06
650.89,4.07
657.40,4.09
663.98,4.11
670.62,4.14
677.32,4.16
684.10,4.19
690.94,4.21
697.85,4.24
704.83,4.27
711.87,4.31
718.99,4.35
726.18,4.39
733.44,4.43
740.78,4.47
748.19,4.50
755.67,4.54
763.23,4.56
770.86,4.58
778.57,4.59
786.35,4.59
794.22,4.58
802.16,4.57
810.18,4.54
818.28,4.49
826.46,4.44
834.73,4.37
843.08,4.28
851.51,4.19
860.02,4.08
868.62,3.96
877.31,3.82
886.08,3.67
894.94,3.50
903.89,3.30
912.93,3.09
922.06,2.85
931.28,2.58
940.59,2.29
950.00,1.98
959.50,1.64
969.09,1.27
978.78,0.88
988.57,0.48
998.46,0.06
1008.44,-0.34
1018.53,-0.72
1028.71,-1.07
1039.00,-1.38
1049.39,-1.63
1059.88,-1.86
1070.48,-2.00
1081.19,-2.08
1092.00,-2.09
1102.92,-2.03
1113.95,-1.89
1125.09,-1.68
1136.34,-1.44
1147.70,-1.14
1159.18,-0.82
1170.77,-0.48
1182.48,-0.15
1194.30,0.17
1206.25,0.48
1218.31,0.76
1230.49,1.01
1242.80,1.24
1255.22,1.46
1267.78,1.66
1280.45,1.85
1293.26,2.02
1306.19,2.19
1319.25,2.36
1332.45,2.49
1345.77,2.60
1359.23,2.70
1372.82,2.77
1386.55,2.83
1400.41,2.89
1414.42,2.95
1428.56,3.00
1442.85,3.06
1457.28,3.14
1471.85,3.22
1486.57,3.34
1501.43,3.47
1516.45,3.65
1531.61,3.85
1546.93,4.09
1562.40,4.35
1578.02,4.62
1593.80,4.91
1609.74,5.21
1625.84,5.52
1642.10,5.85
1658.52,6.18
1675.10,6.52
1691.85,6.87
1708.77,7.21
1725.86,7.55
1743.12,7.88
1760.55,8.21
1778.15,8.54
1795.94,8.86
1813.90,9.19
1832.03,9.53
1850.36,9.86
1868.86,10.21
1887.55,10.56
1906.42,10.90
1925.49,11.25
1944.74,11.58
1964.19,11.89
1983.83,12.19
2003.67,12.48
2023.71,12.75
2043.94,13.03
2064.38,13.30
2085.03,13.58
2105.88,13.85
2126.94,14.13
2148.20,14.41
2169.69,14.69
2191.38,14.97
2213.30,15.23
2235.43,15.49
2257.78,15.74
2280.36,16.00
2303.17,16.27
2326.20,16.56
2349.46,16.86
2372.95,17.18
2396.68,17.49
2420.65,17.80
2444.86,18.11
2469.31,18.41
2494.00,18.69
2518.94,18.97
2544.13,19.23
2569.57,19.47
2595.27,19.70
2621.22,19.91
2647.43,20.11
2673.90,20.27
2700.64,20.41
2727.65,20.52
2754.93,20.60
2782.48,20.63
2810.30,20.63
2838.40,20.59
2866.79,20.50
2895.46,20.36
2924.41,20.14
2953.65,19.88
2983.19,19.51
3013.02,19.10
3043.15,18.62
3073.58,18.06
3104.32,17.45
3135.36,16.80
3166.72,16.13
3198.38,15.46
3230.37,14.82
3262.67,14.20
3295.30,13.63
3328.25,13.16
3361.53,12.77
3395.15,12.50
3429.10,12.41
3463.39,12.42
3498.03,12.55
3533.01,12.79
3568.34,13.02
3604.02,13.24
3640.06,13.35
3676.46,13.35
3713.22,13.24
3750.36,13.03
3787.86,12.66
3825.74,12.29
3864.00,11.88
3902.64,11.55
3941.66,11.23
3981.08,11.03
4020.89,10.94
4061.10,10.91
4101.71,10.97
4142.73,11.05
4184.15,11.15
4226.00,11.21
4268.26,11.24
4310.94,11.21
4354.05,11.11
4397.59,11.00
4441.56,10.90
4485.98,10.85
4530.84,10.82
4576.15,10.81
4621.91,10.80
4668.13,10.80
4714.81,10.83
4761.96,10.88
4809.58,10.96
4857.67,11.07
4906.25,11.20
4955.31,11.35
5004.87,11.51
5054.91,11.68
5105.46,11.84
5156.52,11.97
5208.08,12.02
5260.16,11.93
5312.77,11.75
5365.89,11.41
5419.55,11.01
5473.75,10.62
5528.49,10.27
5583.77,10.00
5639.61,9.81
5696.00,9.64
5752.96,9.53
5810.49,9.44
5868.60,9.38
5927.28,9.34
5986.56,9.32
6046.42,9.35
6106.89,9.42
6167.96,9.58
6229.64,9.83
6291.93,10.19
6354.85,10.67
6418.40,11.17
6482.58,11.69
6547.41,12.15
6612.88,12.54
6679.01,12.80
6745.80,12.96
6813.26,13.05
6881.39,13.06
6950.21,13.04
7019.71,12.98
7089.91,12.91
7160.81,12.81
7232.41,12.72
7304.74,12.62
7377.79,12.56
7451.56,12.55
7526.08,12.59
7601.34,12.70
7677.35,12.86
7754.13,13.03
7831.67,13.24
7909.98,13.44
7989.08,13.65
8068.98,13.83
8149.67,13.97
8231.16,14.07
8313.47,14.04
8396.61,13.92
8480.57,13.59
8565.38,13.01
8651.03,12.23
8737.54,11.22
8824.92,9.94
8913.17,8.40
9002.30,6.76
9092.32,4.84
9183.25,2.77
9275.08,0.64
9367.83,-1.43
9461.51,-2.82
9556.12,-3.42
9651.68,-3.30
9748.20,-2.68
9845.68,-1.82
9944.14,-0.96
10043.58,-0.17
10144.02,0.54
10245.46,1.04
10347.91,1.42
10451.39,1.68
10555.91,1.83
10661.46,2.00
10768.08,2.22
10875.76,2.55
10984.52,3.04
11094.36,3.63
11205.31,4.32
11317.36,5.07
11430.53,5.78
11544.84,6.31
11660.29,6.66
11776.89,6.81
11894.66,6.36
12013.60,5.80
12133.74,4.97
12255.08,3.89
12377.63,2.71
12501.41,1.50
12626.42,0.28
12752.68,-0.93
12880.21,-2.03
13009.01,-3.07
13139.10,-4.12
13270.49,-4.81
13403.20,-5.38
13537.23,-5.76
13672.60,-6.12
13809.33,-6.44
13947.42,-6.72
14086.90,-6.86
14227.77,-6.92
14370.04,-6.86
14513.74,-6.66
14658.88,-6.45
14805.47,-6.34
14953.52,-6.39
15103.06,-6.80
15254.09,-7.37
15406.63,-8.44
15560.70,-9.47
15716.30,-10.41
15873.47,-10.47
16032.20,-10.15
16192.52,-9.26
16354.45,-8.47
16517.99,-7.79
16683.17,-7.53
16850.01,-7.57
17018.51,-7.85
17188.69,-8.43
17360.58,-9.04
17534.18,-9.62
17709.53,-9.95
17886.62,-9.88
18065.49,-9.56
18246.14,-9.01
18428.60,-8.47
18612.89,-8.08
18799.02,-7.88
18987.01,-7.97
19176.88,-8.41
19368.65,-9.08
19562.33,-9.90
19757.96,-10.79
19955.54,-11.41
