frequency,raw
20.00,9.89
20.20,9.84
20.40,9.78
20.61,9.73
20.81,9.76
21.02,9.88
21.23,10.09
21.44,10.42
21.66,10.79
21.87,11.15
22.09,11.46
22.31,11.72
22.54,11.94
22.76,12.13
22.99,12.31
23.22,12.49
23.45,12.66
23.69,12.81
23.92,12.93
24.16,13.02
24.40,13.08
24.65,13.11
24.89,13.12
25.14,13.11
25.39,13.11
25.65,13.15
25.91,13.21
26.16,13.30
26.43,13.41
26.69,13.51
26.96,13.60
27.23,13.66
27.50,13.68
27.77,13.71
28.05,13.76
28.33,13.89
28.62,14.04
28.90,14.25
29.19,14.44
29.48,14.63
29.78,14.71
30.08,14.77
30.38,14.73
30.68,14.65
30.99,14.55
31.30,14.48
31.61,14.46
31.93,14.50
32.24,14.58
32.57,14.67
32.89,14.76
33.22,14.84
33.55,14.92
33.89,14.99
34.23,15.05
34.57,15.10
34.92,15.14
35.27,15.14
35.62,15.14
35.97,15.13
36.33,15.14
36.70,15.18
37.06,15.23
37.43,15.28
37.81,15.30
38.19,15.31
38.57,15.30
38.95,15.30
39.34,15.31
39.74,15.35
40.14,15.39
40.54,15.44
40.94,15.47
41.35,15.48
41.76,15.48
42.18,15.47
42.60,15.46
43.03,15.45
43.46,15.44
43.90,15.43
44.33,15.41
44.78,15.40
45.23,15.39
45.68,15.39
46.13,15.40
46.60,15.40
47.06,15.35
47.53,15.27
48.01,15.16
48.49,15.07
48.97,15.02
49.46,15.00
49.96,15.02
50.46,15.05
50.96,15.09
51.47,15.13
51.99,15.15
52.51,15.13
53.03,15.08
53.56,14.99
54.10,14.93
54.64,14.90
55.18,14.91
55.74,14.93
56.29,14.92
56.86,14.90
57.42,14.84
58.00,14.76
58.58,14.67
59.16,14.58
59.76,14.50
60.35,14.44
60.96,14.40
61.57,14.36
62.18,14.33
62.80,14.29
63.43,14.24
64.07,14.17
64.71,14.08
65.35,13.99
66.01,13.90
66.67,13.87
67.33,13.84
68.01,13.83
68.69,13.79
69.37,13.72
70.07,13.64
70.77,13.56
71.48,13.48
72.19,13.41
72.91,13.34
73.64,13.24
74.38,13.13
75.12,13.01
75.87,12.88
76.63,12.77
77.40,12.65
78.17,12.51
78.95,12.37
79.74,12.25
80.54,12.15
81.35,12.08
82.16,12.01
82.98,11.91
83.81,11.79
84.65,11.66
85.50,11.54
86.35,11.42
87.22,11.30
88.09,11.18
88.97,11.04
89.86,10.90
90.76,10.73
91.66,10.55
92.58,10.33
93.51,10.09
94.44,9.87
95.39,9.68
96.34,9.53
97.30,9.43
98.28,9.35
99.26,9.27
100.25,9.17
101.25,9.03
102.27,8.86
103.29,8.69
104.32,8.52
105.37,8.39
106.42,8.26
107.48,8.14
108.56,8.00
109.64,7.83
110.74,7.63
111.85,7.42
112.97,7.24
114.10,7.07
115.24,6.91
116.39,6.76
117.55,6.62
118.73,6.51
119.92,6.41
121.12,6.31
122.33,6.20
123.55,6.08
124.79,5.93
126.03,5.77
127.29,5.61
128.57,5.46
129.85,5.32
131.15,5.17
132.46,5.05
133.79,4.95
135.12,4.88
136.48,4.83
137.84,4.81
139.22,4.76
140.61,4.68
142.02,4.56
143.44,4.44
144.87,4.32
146.32,4.23
147.78,4.17
149.26,4.14
150.75,4.12
152.26,4.12
153.78,4.13
155.32,4.14
156.88,4.15
158.44,4.16
160.03,4.17
161.63,4.16
163.24,4.14
164.88,4.11
166.53,4.06
168.19,4.01
169.87,3.96
171.57,3.92
173.29,3.89
175.02,3.87
176.77,3.84
178.54,3.78
180.32,3.70
182.13,3.58
183.95,3.44
185.79,3.30
187.65,3.16
189.52,3.02
191.42,2.88
193.33,2.75
195.27,2.63
197.22,2.55
199.19,2.49
201.18,2.46
203.19,2.46
205.23,2.48
207.28,2.52
209.35,2.56
211.44,2.60
213.56,2.64
215.69,2.67
217.85,2.71
220.03,2.75
222.23,2.79
224.45,2.83
226.70,2.87
228.96,2.92
231.25,2.97
233.57,3.03
235.90,3.10
238.26,3.20
240.64,3.31
243.05,3.43
245.48,3.56
247.93,3.68
250.41,3.78
252.92,3.88
255.45,3.98
258.00,4.07
260.58,4.18
263.19,4.28
265.82,4.38
268.48,4.48
271.16,4.57
273.87,4.64
276.61,4.70
279.38,4.73
282.17,4.75
284.99,4.77
287.84,4.77
290.72,4.77
293.63,4.76
296.57,4.75
299.53,4.74
302.53,4.72
305.55,4.70
308.61,4.67
311.69,4.64
314.81,4.60
317.96,4.55
321.14,4.49
324.35,4.42
327.59,4.34
330.87,4.27
334.18,4.18
337.52,4.09
340.90,4.00
344.30,3.90
347.75,3.79
351.23,3.69
354.74,3.58
358.28,3.48
361.87,3.38
365.49,3.28
369.14,3.19
372.83,3.10
376.56,3.00
380.33,2.91
384.13,2.82
387.97,2.74
391.85,2.66
395.77,2.58
399.73,2.51
403.72,2.45
407.76,2.40
411.84,2.35
415.96,2.31
420.12,2.27
424.32,2.25
428.56,2.23
432.85,2.22
437.18,2.22
441.55,2.22
445.96,2.24
450.42,2.26
454.93,2.30
459.48,2.34
464.07,2.40
468.71,2.46
473.40,2.53
478.13,2.62
482.91,2.72
487.74,2.83
492.62,2.96
497.55,3.10
502.52,3.25
507.55,3.41
512.62,3.56
517.75,3.71
522.93,3.84
528.16,3.96
533.44,4.06
538.77,4.16
544.16,4.25
549.60,4.33
555.10,4.40
560.65,4.47
566.25,4.52
571.92,4.55
577.64,4.56
583.41,4.54
589.25,4.49
595.14,4.41
601.09,4.30
607.10,4.17
613.17,4.03
619.30,3.87
625.50,3.72
631.75,3.57
638.07,3.42
644.45,3.28
650.89,3.15
657.40,3.04
663.98,2.93
670.62,2.83
677.32,2.73
684.10,2.65
690.94,2.56
697.85,2.48
704.83,2.41
711.87,2.34
718.99,2.29
726.18,2.25
733.44,2.23
740.78,2.22
748.19,2.22
755.67,2.22
763.23,2.22
770.86,2.20
778.57,2.16
786.35,2.11
794.22,2.03
802.16,1.93
810.18,1.80
818.28,1.64
826.46,1.46
834.73,1.26
843.08,1.03
851.51,0.80
860.02,0.57
868.62,0.34
877.31,0.13
886.08,-0.06
894.94,-0.20
903.89,-0.33
912.93,-0.43
922.06,-0.48
931.28,-0.51
940.59,-0.51
950.00,-0.48
959.50,-0.42
969.09,-0.35
978.78,-0.25
988.57,-0.15
998.46,-0.02
1008.44,0.12
1018.53,0.27
1028.71,0.44
1039.00,0.62
1049.39,0.81
1059.88,1.00
1070.48,1.20
1081.19,1.38
1092.00,1.56
1102.92,1.73
1113.95,1.88
1125.09,2.02
1136.34,2.15
1147.70,2.28
1159.18,2.43
1170.77,2.57
1182.48,2.75
1194.30,2.95
1206.25,3.16
1218.31,3.40
1230.49,3.68
1242.80,3.96
1255.22,4.26
1267.78,4.59
1280.45,4.94
1293.26,5.32
1306.19,5.71
1319.25,6.10
1332.45,6.46
1345.77,6.80
1359.23,7.11
1372.82,7.36
1386.55,7.58
1400.41,7.78
1414.42,7.96
1428.56,8.14
1442.85,8.32
1457.28,8.50
1471.85,8.68
1486.57,8.86
1501.43,9.04
1516.45,9.21
1531.61,9.38
1546.93,9.54
1562.40,9.68
1578.02,9.81
1593.80,9.93
1609.74,10.03
1625.84,10.12
1642.10,10.18
1658.52,10.22
1675.10,10.26
1691.85,10.26
1708.77,10.26
1725.86,10.25
1743.12,10.22
1760.55,10.17
1778.15,10.12
1795.94,10.07
1813.90,10.02
1832.03,9.99
1850.36,9.98
1868.86,9.99
1887.55,10.01
1906.42,10.03
1925.49,10.04
1944.74,10.03
1964.19,9.99
1983.83,9.92
2003.67,9.85
2023.71,9.76
2043.94,9.68
2064.38,9.62
2085.03,9.59
2105.88,9.60
2126.94,9.64
2148.20,9.72
2169.69,9.82
2191.38,9.93
2213.30,10.07
2235.43,10.21
2257.78,10.39
2280.36,10.59
2303.17,10.82
2326.20,11.08
2349.46,11.33
2372.95,11.56
2396.68,11.77
2420.65,11.97
2444.86,12.16
2469.31,12.36
2494.00,12.56
2518.94,12.76
2544.13,12.97
2569.57,13.15
2595.27,13.33
2621.22,13.49
2647.43,13.63
2673.90,13.75
2700.64,13.87
2727.65,13.98
2754.93,14.07
2782.48,14.14
2810.30,14.18
2838.40,14.20
2866.79,14.19
2895.46,14.16
2924.41,14.08
2953.65,13.98
2983.19,13.84
3013.02,13.69
3043.15,13.51
3073.58,13.32
3104.32,13.15
3135.36,13.03
3166.72,12.96
3198.38,12.93
3230.37,12.91
3262.67,12.87
3295.30,12.80
3328.25,12.63
3361.53,12.42
3395.15,12.13
3429.10,11.76
3463.39,11.37
3498.03,10.96
3533.01,10.58
3568.34,10.25
3604.02,9.97
3640.06,9.77
3676.46,9.63
3713.22,9.55
3750.36,9.51
3787.86,9.53
3825.74,9.57
3864.00,9.63
3902.64,9.71
3941.66,9.80
3981.08,9.87
4020.89,9.92
4061.10,9.97
4101.71,10.01
4142.73,10.06
4184.15,10.12
4226.00,10.20
4268.26,10.29
4310.94,10.40
4354.05,10.51
4397.59,10.63
4441.56,10.74
4485.98,10.87
4530.84,11.02
4576.15,11.21
4621.91,11.41
4668.13,11.61
4714.81,11.79
4761.96,11.94
4809.58,12.05
4857.67,12.16
4906.25,12.24
4955.31,12.29
5004.87,12.26
5054.91,12.04
5105.46,11.71
5156.52,11.25
5208.08,10.68
5260.16,10.08
5312.77,9.48
5365.89,8.91
5419.55,8.38
5473.75,7.90
5528.49,7.46
5583.77,7.07
5639.61,6.73
5696.00,6.42
5752.96,6.16
5810.49,5.92
5868.60,5.74
5927.28,5.59
5986.56,5.48
6046.42,5.41
6106.89,5.36
6167.96,5.32
6229.64,5.28
6291.93,5.23
6354.85,5.16
6418.40,5.07
6482.58,4.95
6547.41,4.78
6612.88,4.58
6679.01,4.29
6745.80,3.92
6813.26,3.47
6881.39,2.89
6950.21,2.20
7019.71,1.44
7089.91,0.60
7160.81,-0.23
7232.41,-0.96
7304.74,-1.54
7377.79,-1.70
7451.56,-1.48
7526.08,-0.93
7601.34,-0.09
7677.35,0.95
7754.13,2.05
7831.67,3.20
7909.98,4.30
7989.08,5.32
8068.98,6.18
8149.67,6.95
8231.16,7.62
8313.47,8.21
8396.61,8.75
8480.57,9.20
8565.38,9.60
8651.03,9.96
8737.54,10.31
8824.92,10.66
8913.17,11.03
9002.30,11.42
9092.32,11.81
9183.25,12.14
9275.08,12.39
9367.83,12.49
9461.51,12.29
9556.12,11.83
9651.68,11.10
9748.20,10.10
9845.68,8.80
9944.14,7.35
10043.58,5.79
10144.02,4.19
10245.46,2.71
10347.91,1.42
10451.39,0.39
10555.91,-0.21
10661.46,-0.68
10768.08,-1.06
10875.76,-1.56
10984.52,-2.37
11094.36,-3.40
11205.31,-4.72
11317.36,-6.17
11430.53,-7.49
11544.84,-8.45
11660.29,-9.06
11776.89,-9.52
11894.66,-9.67
12013.60,-9.78
12133.74,-9.72
12255.08,-9.58
12377.63,-9.48
12501.41,-9.60
12626.42,-10.07
12752.68,-10.69
12880.21,-11.38
13009.01,-12.10
13139.10,-12.81
13270.49,-13.51
13403.20,-14.06
13537.23,-13.01
13672.60,-11.16
13809.33,-8.59
13947.42,-5.78
14086.90,-3.26
14227.77,-0.92
14370.04,1.06
14513.74,2.59
14658.88,3.48
14805.47,4.13
14953.52,4.39
15103.06,4.33
15254.09,4.12
15406.63,3.53
15560.70,2.83
15716.30,1.96
15873.47,1.03
16032.20,0.15
16192.52,-0.50
16354.45,-0.92
16517.99,-1.22
16683.17,-1.52
16850.01,-2.02
17018.51,-2.68
17188.69,-3.56
17360.58,-4.38
17534.18,-5.13
17709.53,-5.73
17886.62,-6.43
18065.49,-7.23
18246.14,-8.15
18428.60,-8.83
18612.89,-9.09
18799.02,-8.93
18987.01,-8.30
19176.88,-7.55
19368.65,-7.01
19562.33,-6.75
19757.96,-6.75
19955.54,-6.87
