frequency,raw
20.00,7.53
20.20,7.57
20.40,7.61
20.61,7.65
20.81,7.69
21.02,7.71
21.23,7.71
21.44,7.65
21.66,7.54
21.87,7.40
22.09,7.23
22.31,7.05
22.54,6.91
22.76,6.82
22.99,6.80
23.22,6.93
23.45,7.17
23.69,7.51
23.92,7.95
24.16,8.40
24.40,8.82
24.65,9.19
24.89,9.45
25.14,9.62
25.39,9.73
25.65,9.74
25.91,9.71
26.16,9.65
26.43,9.56
26.69,9.45
26.96,9.34
27.23,9.25
27.50,9.18
27.77,9.15
28.05,9.15
28.33,9.20
28.62,9.25
28.90,9.31
29.19,9.32
29.48,9.32
29.78,9.24
30.08,9.16
30.38,9.05
30.68,8.97
30.99,8.94
31.30,8.93
31.61,8.96
31.93,9.00
32.24,9.05
32.57,9.09
32.89,9.12
33.22,9.12
33.55,9.10
33.89,9.05
34.23,8.97
34.57,8.88
34.92,8.77
35.27,8.68
35.62,8.62
35.97,8.60
36.33,8.62
36.70,8.64
37.06,8.67
37.43,8.67
37.81,8.66
38.19,8.63
38.57,8.61
38.95,8.58
39.34,8.56
39.74,8.54
40.14,8.50
40.54,8.46
40.94,8.41
41.35,8.37
41.76,8.33
42.18,8.28
42.60,8.25
43.03,8.22
43.46,8.21
43.90,8.21
44.33,8.22
44.78,8.22
45.23,8.22
45.68,8.21
46.13,8.20
46.60,8.19
47.06,8.17
47.53,8.15
48.01,8.11
48.49,8.07
48.97,8.05
49.46,8.02
49.96,7.99
50.46,7.96
50.96,7.92
51.47,7.89
51.99,7.87
52.51,7.86
53.03,7.85
53.56,7.83
54.10,7.82
54.64,7.80
55.18,7.79
55.74,7.79
56.29,7.77
56.86,7.76
57.42,7.72
58.00,7.68
58.58,7.63
59.16,7.58
59.76,7.55
60.35,7.54
60.96,7.52
61.57,7.51
62.18,7.49
62.80,7.46
63.43,7.43
64.07,7.40
64.71,7.38
65.35,7.35
66.01,7.33
66.67,7.28
67.33,7.23
68.01,7.16
68.69,7.10
69.37,7.04
70.07,6.98
70.77,6.92
71.48,6.88
72.19,6.83
72.91,6.79
73.64,6.76
74.38,6.72
75.12,6.67
75.87,6.59
76.63,6.51
77.40,6.42
78.17,6.34
78.95,6.25
79.74,6.17
80.54,6.09
81.35,6.01
82.16,5.94
82.98,5.85
83.81,5.77
84.65,5.68
85.50,5.59
86.35,5.50
87.22,5.41
88.09,5.31
88.97,5.20
89.86,5.09
90.76,4.98
91.66,4.87
92.58,4.76
93.51,4.66
94.44,4.56
95.39,4.45
96.34,4.34
97.30,4.23
98.28,4.11
99.26,3.99
100.25,3.87
101.25,3.76
102.27,3.65
103.29,3.55
104.32,3.45
105.37,3.35
106.42,3.25
107.48,3.15
108.56,3.05
109.64,2.96
110.74,2.86
111.85,2.77
112.97,2.69
114.10,2.60
115.24,2.51
116.39,2.44
117.55,2.36
118.73,2.29
119.92,2.23
121.12,2.17
122.33,2.12
123.55,2.08
124.79,2.03
126.03,1.98
127.29,1.93
128.57,1.90
129.85,1.86
131.15,1.83
132.46,1.80
133.79,1.77
135.12,1.75
136.48,1.73
137.84,1.72
139.22,1.70
140.61,1.68
142.02,1.65
143.44,1.62
144.87,1.58
146.32,1.54
147.78,1.50
149.26,1.47
150.75,1.44
152.26,1.42
153.78,1.41
155.32,1.39
156.88,1.36
158.44,1.34
160.03,1.31
161.63,1.28
163.24,1.24
164.88,1.21
166.53,1.17
168.19,1.13
169.87,1.10
171.57,1.06
173.29,1.01
175.02,0.96
176.77,0.89
178.54,0.81
180.32,0.73
182.13,0.65
183.95,0.56
185.79,0.47
187.65,0.38
189.52,0.29
191.42,0.20
193.33,0.12
195.27,0.05
197.22,-0.01
199.19,-0.06
201.18,-0.10
203.19,-0.13
205.23,-0.14
207.28,-0.14
209.35,-0.14
211.44,-0.14
213.56,-0.15
215.69,-0.17
217.85,-0.20
220.03,-0.22
222.23,-0.24
224.45,-0.27
226.70,-0.29
228.96,-0.31
231.25,-0.32
233.57,-0.33
235.90,-0.32
238.26,-0.31
240.64,-0.29
243.05,-0.27
245.48,-0.24
247.93,-0.20
250.41,-0.17
252.92,-0.13
255.45,-0.08
258.00,-0.03
260.58,0.02
263.19,0.07
265.82,0.12
268.48,0.16
271.16,0.20
273.87,0.24
276.61,0.28
279.38,0.32
282.17,0.36
284.99,0.41
287.84,0.45
290.72,0.50
293.63,0.55
296.57,0.58
299.53,0.62
302.53,0.65
305.55,0.68
308.61,0.70
311.69,0.73
314.81,0.75
317.96,0.78
321.14,0.80
324.35,0.82
327.59,0.83
330.87,0.84
334.18,0.84
337.52,0.85
340.90,0.86
344.30,0.86
347.75,0.86
351.23,0.85
354.74,0.84
358.28,0.82
361.87,0.80
365.49,0.78
369.14,0.75
372.83,0.73
376.56,0.69
380.33,0.66
384.13,0.62
387.97,0.57
391.85,0.53
395.77,0.48
399.73,0.43
403.72,0.36
407.76,0.28
411.84,0.20
415.96,0.10
420.12,-0.01
424.32,-0.12
428.56,-0.25
432.85,-0.38
437.18,-0.51
441.55,-0.66
445.96,-0.80
450.42,-0.96
454.93,-1.12
459.48,-1.27
464.07,-1.43
468.71,-1.59
473.40,-1.74
478.13,-1.88
482.91,-2.02
487.74,-2.15
492.62,-2.27
497.55,-2.38
502.52,-2.47
507.55,-2.55
512.62,-2.59
517.75,-2.63
522.93,-2.64
528.16,-2.64
533.44,-2.62
538.77,-2.59
544.16,-2.55
549.60,-2.50
555.10,-2.43
560.65,-2.34
566.25,-2.22
571.92,-2.10
577.64,-1.96
583.41,-1.81
589.25,-1.66
595.14,-1.49
601.09,-1.32
607.10,-1.15
613.17,-0.98
619.30,-0.80
625.50,-0.63
631.75,-0.47
638.07,-0.31
644.45,-0.18
650.89,-0.07
657.40,0.02
663.98,0.07
670.62,0.11
677.32,0.12
684.10,0.12
690.94,0.10
697.85,0.07
704.83,0.02
711.87,-0.02
718.99,-0.07
726.18,-0.10
733.44,-0.12
740.78,-0.11
748.19,-0.07
755.67,0.01
763.23,0.11
770.86,0.23
778.57,0.36
786.35,0.49
794.22,0.61
802.16,0.72
810.18,0.80
818.28,0.85
826.46,0.89
834.73,0.89
843.08,0.87
851.51,0.84
860.02,0.78
868.62,0.70
877.31,0.61
886.08,0.52
894.94,0.42
903.89,0.33
912.93,0.26
922.06,0.20
931.28,0.16
940.59,0.13
950.00,0.10
959.50,0.07
969.09,0.04
978.78,0.02
988.57,0.00
998.46,-0.00
1008.44,0.01
1018.53,0.03
1028.71,0.06
1039.00,0.12
1049.39,0.20
1059.88,0.29
1070.48,0.40
1081.19,0.53
1092.00,0.66
1102.92,0.81
1113.95,0.97
1125.09,1.14
1136.34,1.31
1147.70,1.49
1159.18,1.68
1170.77,1.88
1182.48,2.08
1194.30,2.30
1206.25,2.51
1218.31,2.74
1230.49,3.00
1242.80,3.26
1255.22,3.57
1267.78,3.90
1280.45,4.28
1293.26,4.72
1306.19,5.16
1319.25,5.61
1332.45,6.04
1345.77,6.45
1359.23,6.83
1372.82,7.13
1386.55,7.40
1400.41,7.62
1414.42,7.77
1428.56,7.92
1442.85,8.02
1457.28,8.09
1471.85,8.14
1486.57,8.16
1501.43,8.18
1516.45,8.18
1531.61,8.16
1546.93,8.15
1562.40,8.12
1578.02,8.09
1593.80,8.05
1609.74,8.01
1625.84,7.97
1642.10,7.94
1658.52,7.90
1675.10,7.87
1691.85,7.85
1708.77,7.84
1725.86,7.84
1743.12,7.84
1760.55,7.85
1778.15,7.86
1795.94,7.88
1813.90,7.90
1832.03,7.94
1850.36,7.99
1868.86,8.06
1887.55,8.15
1906.42,8.23
1925.49,8.32
1944.74,8.40
1964.19,8.46
1983.83,8.52
2003.67,8.58
2023.71,8.63
2043.94,8.72
2064.38,8.82
2085.03,8.97
2105.88,9.14
2126.94,9.34
2148.20,9.55
2169.69,9.77
2191.38,9.98
2213.30,10.20
2235.43,10.41
2257.78,10.63
2280.36,10.87
2303.17,11.12
2326.20,11.37
2349.46,11.60
2372.95,11.82
2396.68,12.02
2420.65,12.22
2444.86,12.43
2469.31,12.63
2494.00,12.85
2518.94,13.07
2544.13,13.29
2569.57,13.49
2595.27,13.67
2621.22,13.84
2647.43,13.97
2673.90,14.07
2700.64,14.16
2727.65,14.22
2754.93,14.28
2782.48,14.32
2810.30,14.35
2838.40,14.37
2866.79,14.39
2895.46,14.40
2924.41,14.41
2953.65,14.41
2983.19,14.41
3013.02,14.38
3043.15,14.34
3073.58,14.26
3104.32,14.17
3135.36,14.07
3166.72,13.99
3198.38,13.91
3230.37,13.85
3262.67,13.78
3295.30,13.68
3328.25,13.50
3361.53,13.27
3395.15,12.99
3429.10,12.62
3463.39,12.22
3498.03,11.76
3533.01,11.28
3568.34,10.80
3604.02,10.33
3640.06,9.90
3676.46,9.50
3713.22,9.12
3750.36,8.77
3787.86,8.44
3825.74,8.10
3864.00,7.78
3902.64,7.44
3941.66,7.11
3981.08,6.75
4020.89,6.37
4061.10,5.98
4101.71,5.55
4142.73,5.14
4184.15,4.74
4226.00,4.41
4268.26,4.15
4310.94,3.99
4354.05,4.01
4397.59,4.18
4441.56,4.45
4485.98,4.96
4530.84,5.62
4576.15,6.45
4621.91,7.34
4668.13,8.28
4714.81,9.16
4761.96,9.99
4809.58,10.72
4857.67,11.36
4906.25,11.84
4955.31,12.21
5004.87,12.39
5054.91,12.30
5105.46,12.08
5156.52,11.70
5208.08,11.19
5260.16,10.65
5312.77,10.10
5365.89,9.58
5419.55,9.09
5473.75,8.64
5528.49,8.24
5583.77,7.89
5639.61,7.60
5696.00,7.32
5752.96,7.11
5810.49,6.91
5868.60,6.76
5927.28,6.63
5986.56,6.52
6046.42,6.43
6106.89,6.35
6167.96,6.26
6229.64,6.14
6291.93,5.99
6354.85,5.77
6418.40,5.52
6482.58,5.21
6547.41,4.86
6612.88,4.47
6679.01,4.04
6745.80,3.60
6813.26,3.15
6881.39,2.72
6950.21,2.32
7019.71,1.94
7089.91,1.59
7160.81,1.29
7232.41,1.02
7304.74,0.79
7377.79,0.61
7451.56,0.51
7526.08,0.50
7601.34,0.59
7677.35,0.75
7754.13,0.93
7831.67,1.04
7909.98,1.06
7989.08,0.93
8068.98,0.52
8149.67,-0.07
8231.16,-0.89
8313.47,-1.75
8396.61,-2.53
8480.57,-2.88
8565.38,-2.68
8651.03,-2.16
8737.54,-1.35
8824.92,-0.47
8913.17,0.32
9002.30,1.08
9092.32,1.64
9183.25,2.03
9275.08,2.25
9367.83,2.21
9461.51,1.79
9556.12,1.07
9651.68,0.14
9748.20,-0.84
9845.68,-1.31
9944.14,-1.47
10043.58,-1.47
10144.02,-1.51
10245.46,-1.82
10347.91,-2.28
10451.39,-2.90
10555.91,-3.65
10661.46,-4.28
10768.08,-4.75
10875.76,-4.91
10984.52,-4.98
11094.36,-5.00
11205.31,-4.95
11317.36,-4.66
11430.53,-4.25
11544.84,-3.65
11660.29,-3.03
11776.89,-2.53
11894.66,-2.61
12013.60,-2.80
12133.74,-3.42
12255.08,-4.51
12377.63,-5.84
12501.41,-7.30
12626.42,-8.76
12752.68,-10.05
12880.21,-10.38
13009.01,-10.17
13139.10,-9.95
13270.49,-8.37
13403.20,-6.57
13537.23,-4.83
13672.60,-3.24
13809.33,-1.80
13947.42,-0.66
14086.90,0.19
14227.77,0.85
14370.04,1.27
14513.74,1.42
14658.88,1.26
14805.47,1.02
14953.52,0.65
15103.06,0.17
15254.09,-0.36
15406.63,-1.05
15560.70,-1.78
15716.30,-2.59
15873.47,-3.29
16032.20,-3.86
16192.52,-4.02
16354.45,-3.95
16517.99,-3.76
16683.17,-3.71
16850.01,-3.91
17018.51,-4.32
17188.69,-5.05
17360.58,-5.85
17534.18,-6.63
17709.53,-7.22
17886.62,-7.58
18065.49,-7.81
18246.14,-7.96
18428.60,-7.85
18612.89,-7.54
18799.02,-7.06
18987.01,-6.50
19176.88,-6.04
19368.65,-5.72
19562.33,-5.56
19757.96,-5.54
19955.54,-5.59
