frequency,raw
20.00,0.58
20.20,0.61
20.40,0.66
20.61,0.70
20.81,0.75
21.02,0.81
21.23,0.88
21.44,0.94
21.66,1.00
21.87,1.06
22.09,1.12
22.31,1.19
22.54,1.25
22.76,1.31
22.99,1.36
23.22,1.40
23.45,1.45
23.69,1.50
23.92,1.54
24.16,1.59
24.40,1.64
24.65,1.68
24.89,1.73
25.14,1.78
25.39,1.82
25.65,1.85
25.91,1.89
26.16,1.93
26.43,1.96
26.69,1.99
26.96,2.03
27.23,2.06
27.50,2.08
27.77,2.12
28.05,2.13
28.33,2.17
28.62,2.21
28.90,2.22
29.19,2.26
29.48,2.26
29.78,2.31
30.08,2.32
30.38,2.36
30.68,2.36
30.99,2.40
31.30,2.40
31.61,2.45
31.93,2.45
32.24,2.49
32.57,2.50
32.89,2.50
33.22,2.54
33.55,2.54
33.89,2.56
34.23,2.59
34.57,2.59
34.92,2.61
35.27,2.64
35.62,2.64
35.97,2.64
36.33,2.68
36.70,2.68
37.06,2.68
37.43,2.68
37.81,2.73
38.19,2.73
38.57,2.73
38.95,2.73
39.34,2.74
39.74,2.77
40.14,2.78
40.54,2.78
40.94,2.78
41.35,2.75
41.76,2.73
42.18,2.73
42.60,2.73
43.03,2.73
43.46,2.69
43.90,2.68
44.33,2.68
44.78,2.66
45.23,2.64
45.68,2.64
46.13,2.62
46.60,2.59
47.06,2.59
47.53,2.55
48.01,2.54
48.49,2.54
48.97,2.50
49.46,2.50
49.96,2.47
50.46,2.45
50.96,2.42
51.47,2.40
51.99,2.38
52.51,2.36
53.03,2.32
53.56,2.31
54.10,2.26
54.64,2.25
55.18,2.22
55.74,2.19
56.29,2.17
56.86,2.13
57.42,2.12
58.00,2.08
58.58,2.03
59.16,2.03
59.76,1.98
60.35,1.94
60.96,1.91
61.57,1.88
62.18,1.84
62.80,1.79
63.43,1.76
64.07,1.73
64.71,1.68
65.35,1.64
66.01,1.59
66.67,1.54
67.33,1.50
68.01,1.45
68.69,1.40
69.37,1.36
70.07,1.31
70.77,1.26
71.48,1.22
72.19,1.17
72.91,1.12
73.64,1.08
74.38,1.03
75.12,0.98
75.87,0.94
76.63,0.89
77.40,0.84
78.17,0.78
78.95,0.73
79.74,0.67
80.54,0.62
81.35,0.57
82.16,0.52
82.98,0.47
83.81,0.42
84.65,0.36
85.50,0.30
86.35,0.24
87.22,0.21
88.09,0.15
88.97,0.10
89.86,0.04
90.76,0.01
91.66,-0.04
92.58,-0.10
93.51,-0.17
94.44,-0.23
95.39,-0.27
96.34,-0.32
97.30,-0.37
98.28,-0.43
99.26,-0.50
100.25,-0.55
101.25,-0.62
102.27,-0.68
103.29,-0.74
104.32,-0.79
105.37,-0.83
106.42,-0.88
107.48,-0.94
108.56,-1.00
109.64,-1.06
110.74,-1.11
111.85,-1.15
112.97,-1.21
114.10,-1.25
115.24,-1.30
116.39,-1.35
117.55,-1.39
118.73,-1.43
119.92,-1.48
121.12,-1.52
122.33,-1.55
123.55,-1.60
124.79,-1.63
126.03,-1.69
127.29,-1.72
128.57,-1.75
129.85,-1.80
131.15,-1.83
132.46,-1.87
133.79,-1.90
135.12,-1.93
136.48,-1.97
137.84,-2.01
139.22,-2.04
140.61,-2.08
142.02,-2.11
143.44,-2.14
144.87,-2.17
146.32,-2.20
147.78,-2.23
149.26,-2.25
150.75,-2.29
152.26,-2.30
153.78,-2.33
155.32,-2.35
156.88,-2.35
158.44,-2.39
160.03,-2.39
161.63,-2.39
163.24,-2.44
164.88,-2.44
166.53,-2.44
168.19,-2.44
169.87,-2.46
171.57,-2.48
173.29,-2.48
175.02,-2.48
176.77,-2.48
178.54,-2.48
180.32,-2.48
182.13,-2.48
183.95,-2.48
185.79,-2.48
187.65,-2.48
189.52,-2.48
191.42,-2.48
193.33,-2.44
195.27,-2.44
197.22,-2.44
199.19,-2.43
201.18,-2.39
203.19,-2.39
205.23,-2.36
207.28,-2.35
209.35,-2.33
211.44,-2.30
213.56,-2.29
215.69,-2.25
217.85,-2.24
220.03,-2.21
222.23,-2.19
224.45,-2.16
226.70,-2.15
228.96,-2.11
231.25,-2.08
233.57,-2.07
235.90,-2.02
238.26,-2.01
240.64,-1.97
243.05,-1.93
245.48,-1.90
247.93,-1.87
250.41,-1.84
252.92,-1.79
255.45,-1.75
258.00,-1.72
260.58,-1.69
263.19,-1.65
265.82,-1.60
268.48,-1.57
271.16,-1.54
273.87,-1.51
276.61,-1.46
279.38,-1.42
282.17,-1.39
284.99,-1.36
287.84,-1.32
290.72,-1.28
293.63,-1.25
296.57,-1.21
299.53,-1.18
302.53,-1.13
305.55,-1.10
308.61,-1.07
311.69,-1.02
314.81,-0.98
317.96,-0.93
321.14,-0.90
324.35,-0.84
327.59,-0.79
330.87,-0.76
334.18,-0.70
337.52,-0.65
340.90,-0.62
344.30,-0.56
347.75,-0.51
351.23,-0.46
354.74,-0.42
358.28,-0.37
361.87,-0.34
365.49,-0.28
369.14,-0.25
372.83,-0.20
376.56,-0.17
380.33,-0.11
384.13,-0.08
387.97,-0.03
391.85,0.01
395.77,0.05
399.73,0.09
403.72,0.12
407.76,0.17
411.84,0.21
415.96,0.24
420.12,0.27
424.32,0.31
428.56,0.36
432.85,0.39
437.18,0.42
441.55,0.45
445.96,0.49
450.42,0.53
454.93,0.56
459.48,0.59
464.07,0.63
468.71,0.66
473.40,0.68
478.13,0.72
482.91,0.73
487.74,0.77
492.62,0.79
497.55,0.82
502.52,0.87
507.55,0.88
512.62,0.91
517.75,0.96
522.93,1.00
528.16,1.01
533.44,1.05
538.77,1.07
544.16,1.10
549.60,1.12
555.10,1.15
560.65,1.15
566.25,1.19
571.92,1.19
577.64,1.19
583.41,1.24
589.25,1.24
595.14,1.24
601.09,1.24
607.10,1.24
613.17,1.24
619.30,1.24
625.50,1.20
631.75,1.19
638.07,1.19
644.45,1.18
650.89,1.15
657.40,1.11
663.98,1.10
670.62,1.05
677.32,1.02
684.10,0.99
690.94,0.94
697.85,0.90
704.83,0.85
711.87,0.82
718.99,0.76
726.18,0.71
733.44,0.68
740.78,0.62
748.19,0.57
755.67,0.52
763.23,0.47
770.86,0.42
778.57,0.38
786.35,0.32
794.22,0.29
802.16,0.24
810.18,0.18
818.28,0.15
826.46,0.10
834.73,0.06
843.08,0.03
851.51,-0.02
860.02,-0.03
868.62,-0.06
877.31,-0.06
886.08,-0.11
894.94,-0.11
903.89,-0.11
912.93,-0.11
922.06,-0.11
931.28,-0.11
940.59,-0.11
950.00,-0.11
959.50,-0.06
969.09,-0.06
978.78,-0.06
988.57,-0.02
998.46,-0.01
1008.44,0.03
1018.53,0.06
1028.71,0.10
1039.00,0.14
1049.39,0.19
1059.88,0.24
1070.48,0.29
1081.19,0.36
1092.00,0.42
1102.92,0.49
1113.95,0.55
1125.09,0.62
1136.34,0.70
1147.70,0.78
1159.18,0.86
1170.77,0.95
1182.48,1.02
1194.30,1.13
1206.25,1.19
1218.31,1.30
1230.49,1.36
1242.80,1.47
1255.22,1.53
1267.78,1.64
1280.45,1.70
1293.26,1.80
1306.19,1.87
1319.25,1.96
1332.45,2.04
1345.77,2.11
1359.23,2.19
1372.82,2.28
1386.55,2.35
1400.41,2.42
1414.42,2.50
1428.56,2.58
1442.85,2.66
1457.28,2.72
1471.85,2.79
1486.57,2.87
1501.43,2.95
1516.45,3.00
1531.61,3.08
1546.93,3.14
1562.40,3.21
1578.02,3.29
1593.80,3.35
1609.74,3.42
1625.84,3.50
1642.10,3.57
1658.52,3.64
1675.10,3.73
1691.85,3.81
1708.77,3.88
1725.86,3.98
1743.12,4.05
1760.55,4.16
1778.15,4.22
1795.94,4.33
1813.90,4.40
1832.03,4.50
1850.36,4.61
1868.86,4.69
1887.55,4.78
1906.42,4.89
1925.49,4.99
1944.74,5.08
1964.19,5.19
1983.83,5.27
2003.67,5.38
2023.71,5.49
2043.94,5.58
2064.38,5.69
2085.03,5.77
2105.88,5.88
2126.94,5.99
2148.20,6.07
2169.69,6.16
2191.38,6.27
2213.30,6.33
2235.43,6.42
2257.78,6.50
2280.36,6.58
2303.17,6.66
2326.20,6.73
2349.46,6.81
2372.95,6.88
2396.68,6.94
2420.65,7.01
2444.86,7.05
2469.31,7.11
2494.00,7.14
2518.94,7.19
2544.13,7.20
2569.57,7.25
2595.27,7.25
2621.22,7.29
2647.43,7.29
2673.90,7.29
2700.64,7.29
2727.65,7.25
2754.93,7.25
2782.48,7.20
2810.30,7.18
2838.40,7.14
2866.79,7.08
2895.46,7.04
2924.41,6.99
2953.65,6.94
2983.19,6.88
3013.02,6.81
3043.15,6.73
3073.58,6.65
3104.32,6.58
3135.36,6.50
3166.72,6.42
3198.38,6.33
3230.37,6.24
3262.67,6.15
3295.30,6.05
3328.25,5.94
3361.53,5.82
3395.15,5.70
3429.10,5.59
3463.39,5.46
3498.03,5.35
3533.01,5.19
3568.34,5.05
3604.02,4.91
3640.06,4.77
3676.46,4.61
3713.22,4.47
3750.36,4.31
3787.86,4.16
3825.74,4.02
3864.00,3.88
3902.64,3.73
3941.66,3.58
3981.08,3.44
4020.89,3.31
4061.10,3.16
4101.71,3.04
4142.73,2.89
4184.15,2.75
4226.00,2.63
4268.26,2.50
4310.94,2.39
4354.05,2.28
4397.59,2.15
4441.56,2.04
4485.98,1.94
4530.84,1.87
4576.15,1.78
4621.91,1.70
4668.13,1.64
4714.81,1.59
4761.96,1.53
4809.58,1.48
4857.67,1.43
4906.25,1.40
4955.31,1.38
5004.87,1.34
5054.91,1.33
5105.46,1.33
5156.52,1.31
5208.08,1.31
5260.16,1.33
5312.77,1.33
5365.89,1.36
5419.55,1.39
5473.75,1.42
5528.49,1.45
5583.77,1.51
5639.61,1.54
5696.00,1.57
5752.96,1.61
5810.49,1.61
5868.60,1.66
5927.28,1.65
5986.56,1.61
6046.42,1.58
6106.89,1.52
6167.96,1.43
6229.64,1.35
6291.93,1.24
6354.85,1.13
6418.40,1.00
6482.58,0.86
6547.41,0.73
6612.88,0.58
6679.01,0.44
6745.80,0.31
6813.26,0.18
6881.39,0.07
6950.21,-0.04
7019.71,-0.17
7089.91,-0.25
7160.81,-0.34
7232.41,-0.41
7304.74,-0.46
7377.79,-0.50
7451.56,-0.53
7526.08,-0.53
7601.34,-0.53
7677.35,-0.48
7754.13,-0.47
7831.67,-0.41
7909.98,-0.38
7989.08,-0.34
8068.98,-0.34
8149.67,-0.34
8231.16,-0.40
8313.47,-0.48
8396.61,-0.61
8480.57,-0.80
8565.38,-1.02
8651.03,-1.31
8737.54,-1.63
8824.92,-1.99
8913.17,-2.43
9002.30,-2.86
9092.32,-3.36
9183.25,-3.84
9275.08,-4.37
9367.83,-4.90
9461.51,-5.40
9556.12,-5.93
9651.68,-6.44
9748.20,-6.93
9845.68,-7.40
9944.14,-7.86
10043.58,-8.27
10144.02,-8.67
10245.46,-9.05
10347.91,-9.41
10451.39,-9.75
10555.91,-10.07
10661.46,-10.37
10768.08,-10.62
10875.76,-10.84
10984.52,-11.04
11094.36,-11.22
11205.31,-11.33
11317.36,-11.43
11430.53,-11.49
11544.84,-11.52
11660.29,-11.52
11776.89,-11.50
11894.66,-11.45
12013.60,-11.38
12133.74,-11.30
12255.08,-11.21
12377.63,-11.10
12501.41,-10.99
12626.42,-10.89
12752.68,-10.78
12880.21,-10.67
13009.01,-10.53
13139.10,-10.37
13270.49,-10.19
13403.20,-10.00
13537.23,-9.77
13672.60,-9.50
13809.33,-9.18
13947.42,-8.82
14086.90,-8.46
14227.77,-8.06
14370.04,-7.66
14513.74,-7.26
14658.88,-6.87
14805.47,-6.55
14953.52,-6.24
15103.06,-6.01
15254.09,-5.84
15406.63,-5.73
15560.70,-5.72
15716.30,-5.81
15873.47,-5.96
16032.20,-6.17
16192.52,-6.42
16354.45,-6.74
16517.99,-7.06
16683.17,-7.39
16850.01,-7.72
17018.51,-8.02
17188.69,-8.30
17360.58,-8.54
17534.18,-8.75
17709.53,-8.94
17886.62,-9.13
18065.49,-9.34
18246.14,-9.60
18428.60,-9.99
18612.89,-10.45
18799.02,-10.96
18987.01,-11.58
19176.88,-12.18
19368.65,-12.70
19562.33,-13.22
19757.96,-13.62
19955.54,-13.84
