frequency,raw,smoothed,error,error_smoothed,equalization,parametric_eq,fixed_band_eq,equalized_raw,equalized_smoothed,target
20.00,-7.42,-7.43,-10.36,-10.37,6.00,6.45,2.77,-1.42,-1.43,2.94
20.20,-7.33,-7.32,-10.27,-10.25,6.00,6.44,2.85,-1.33,-1.32,2.94
20.40,-7.21,-7.21,-10.15,-10.15,6.00,6.43,2.93,-1.21,-1.21,2.94
20.61,-7.12,-7.11,-10.06,-10.05,6.00,6.42,3.01,-1.12,-1.11,2.94
20.81,-7.00,-7.01,-9.94,-9.95,6.00,6.41,3.10,-1.00,-1.01,2.94
21.02,-6.92,-6.93,-9.87,-9.87,6.00,6.40,3.19,-0.92,-0.93,2.95
21.23,-6.86,-6.85,-9.80,-9.79,6.00,6.39,3.28,-0.86,-0.85,2.94
21.44,-6.78,-6.77,-9.72,-9.72,6.00,6.38,3.37,-0.78,-0.77,2.94
21.66,-6.68,-6.68,-9.63,-9.63,6.00,6.37,3.47,-0.68,-0.68,2.94
21.87,-6.59,-6.59,-9.53,-9.53,6.00,6.36,3.57,-0.59,-0.59,2.94
22.09,-6.50,-6.51,-9.44,-9.45,6.00,6.35,3.67,-0.50,-0.51,2.94
22.31,-6.45,-6.45,-9.39,-9.40,6.00,6.34,3.77,-0.45,-0.45,2.94
22.54,-6.40,-6.40,-9.34,-9.34,6.00,6.32,3.88,-0.40,-0.40,2.94
22.76,-6.35,-6.33,-9.30,-9.28,6.00,6.31,3.99,-0.35,-0.33,2.95
22.99,-6.23,-6.23,-9.19,-9.19,6.00,6.30,4.10,-0.23,-0.23,2.96
23.22,-6.10,-6.10,-9.07,-9.07,6.00,6.29,4.22,-0.10,-0.10,2.97
23.45,-5.97,-5.98,-8.95,-8.96,6.00,6.28,4.34,0.03,0.02,2.98
23.69,-5.88,-5.88,-8.87,-8.86,6.00,6.27,4.46,0.12,0.12,2.99
23.92,-5.80,-5.80,-8.79,-8.78,6.00,6.25,4.58,0.20,0.20,2.99
24.16,-5.74,-5.74,-8.73,-8.73,6.00,6.24,4.71,0.26,0.26,2.99
24.40,-5.70,-5.70,-8.69,-8.69,6.00,6.23,4.83,0.30,0.30,2.99
24.65,-5.68,-5.68,-8.67,-8.67,6.00,6.21,4.96,0.32,0.32,2.99
24.89,-5.65,-5.64,-8.65,-8.65,6.00,6.20,5.09,0.35,0.36,3.00
25.14,-5.61,-5.61,-8.62,-8.62,6.00,6.19,5.23,0.39,0.39,3.01
25.39,-5.56,-5.57,-8.58,-8.59,6.00,6.17,5.36,0.44,0.43,3.02
25.65,-5.53,-5.53,-8.55,-8.55,6.00,6.16,5.50,0.47,0.47,3.02
25.91,-5.50,-5.49,-8.53,-8.52,6.00,6.14,5.63,0.50,0.51,3.03
26.16,-5.45,-5.45,-8.48,-8.48,6.00,6.13,5.76,0.55,0.55,3.03
26.43,-5.39,-5.40,-8.43,-8.43,6.00,6.11,5.90,0.61,0.60,3.04
26.69,-5.35,-5.35,-8.38,-8.38,6.00,6.10,6.03,0.65,0.65,3.03
26.96,-5.31,-5.31,-8.34,-8.34,6.00,6.08,6.16,0.69,0.69,3.03
27.23,-5.27,-5.27,-8.30,-8.31,6.00,6.07,6.29,0.73,0.73,3.03
27.50,-5.24,-5.26,-8.27,-8.29,6.00,6.05,6.42,0.76,0.74,3.03
27.77,-5.23,-5.23,-8.26,-8.26,6.00,6.04,6.54,0.77,0.77,3.03
28.05,-5.21,-5.18,-8.23,-8.19,6.00,6.02,6.66,0.79,0.82,3.02
28.33,-5.08,-5.07,-8.09,-8.08,6.00,6.00,6.77,0.92,0.93,3.01
28.62,-4.91,-4.94,-7.92,-7.94,6.00,5.98,6.87,1.09,1.06,3.01
28.90,-4.78,-4.80,-7.78,-7.79,6.00,5.97,6.97,1.22,1.20,3.00
29.19,-4.69,-4.66,-7.67,-7.64,6.00,5.95,7.06,1.31,1.34,2.98
29.48,-4.53,-4.52,-7.50,-7.49,6.00,5.93,7.14,1.47,1.48,2.97
29.78,-4.37,-4.40,-7.33,-7.36,6.00,5.91,7.21,1.63,1.60,2.96
30.08,-4.31,-4.34,-7.25,-7.28,6.00,5.89,7.27,1.69,1.66,2.94
30.38,-4.34,-4.33,-7.28,-7.26,6.00,5.87,7.32,1.66,1.67,2.94
30.68,-4.36,-4.34,-7.28,-7.26,6.00,5.86,7.35,1.64,1.66,2.92
30.99,-4.34,-4.34,-7.25,-7.25,6.00,5.84,7.38,1.66,1.66,2.91
31.30,-4.32,-4.33,-7.21,-7.22,6.00,5.82,7.39,1.68,1.67,2.89
31.61,-4.32,-4.32,-7.19,-7.20,6.00,5.79,7.40,1.68,1.68,2.87
31.93,-4.34,-4.34,-7.19,-7.19,6.00,5.77,7.38,1.66,1.66,2.85
32.24,-4.37,-4.37,-7.20,-7.20,6.00,5.75,7.36,1.63,1.63,2.83
32.57,-4.41,-4.41,-7.21,-7.21,6.00,5.73,7.33,1.59,1.59,2.80
32.89,-4.46,-4.46,-7.24,-7.24,6.00,5.71,7.28,1.54,1.54,2.78
33.22,-4.52,-4.53,-7.28,-7.29,6.00,5.69,7.22,1.48,1.47,2.76
33.55,-4.60,-4.60,-7.34,-7.34,6.00,5.66,7.16,1.40,1.40,2.74
33.89,-4.68,-4.68,-7.39,-7.39,6.00,5.64,7.09,1.32,1.32,2.71
34.23,-4.74,-4.75,-7.43,-7.43,6.00,5.62,7.01,1.26,1.25,2.69
34.57,-4.80,-4.80,-7.46,-7.46,6.00,5.59,6.92,1.20,1.20,2.66
34.92,-4.83,-4.83,-7.47,-7.46,6.00,5.57,6.82,1.17,1.17,2.64
35.27,-4.83,-4.83,-7.44,-7.44,6.00,5.54,6.72,1.17,1.17,2.61
35.62,-4.80,-4.80,-7.39,-7.40,6.00,5.52,6.62,1.20,1.20,2.59
35.97,-4.76,-4.76,-7.34,-7.34,6.00,5.49,6.51,1.24,1.24,2.58
36.33,-4.71,-4.71,-7.27,-7.27,6.00,5.47,6.40,1.29,1.29,2.56
36.70,-4.64,-4.63,-7.19,-7.19,6.00,5.44,6.29,1.36,1.37,2.55
37.06,-4.54,-4.53,-7.08,-7.07,6.00,5.42,6.18,1.46,1.47,2.54
37.43,-4.41,-4.41,-6.94,-6.94,6.00,5.39,6.06,1.59,1.59,2.53
37.81,-4.28,-4.29,-6.80,-6.81,6.00,5.36,5.95,1.72,1.71,2.52
38.19,-4.18,-4.17,-6.69,-6.69,6.00,5.33,5.84,1.82,1.83,2.51
38.57,-4.07,-4.05,-6.58,-6.56,6.00,5.30,5.72,1.93,1.95,2.51
38.95,-3.93,-3.94,-6.44,-6.46,6.01,5.27,5.61,2.08,2.06,2.51
39.34,-3.83,-3.84,-6.34,-6.35,6.02,5.25,5.50,2.19,2.17,2.51
39.74,-3.77,-3.75,-6.28,-6.27,6.02,5.22,5.40,2.25,2.27,2.51
40.14,-3.68,-3.68,-6.19,-6.20,6.02,5.18,5.29,2.34,2.33,2.51
40.54,-3.61,-3.62,-6.12,-6.13,6.00,5.15,5.19,2.39,2.39,2.51
40.94,-3.55,-3.55,-6.06,-6.06,5.97,5.12,5.09,2.42,2.43,2.51
41.35,-3.48,-3.48,-5.99,-5.99,5.93,5.09,4.99,2.45,2.45,2.51
41.76,-3.40,-3.39,-5.91,-5.90,5.86,5.06,4.90,2.46,2.47,2.51
42.18,-3.29,-3.29,-5.79,-5.79,5.78,5.03,4.81,2.49,2.49,2.50
42.60,-3.17,-3.17,-5.67,-5.67,5.68,4.99,4.72,2.51,2.51,2.50
43.03,-3.05,-3.06,-5.54,-5.55,5.57,4.96,4.64,2.52,2.52,2.49
43.46,-2.95,-2.95,-5.44,-5.43,5.46,4.92,4.56,2.50,2.51,2.49
43.90,-2.84,-2.84,-5.32,-5.32,5.33,4.89,4.48,2.49,2.49,2.48
44.33,-2.74,-2.74,-5.21,-5.21,5.22,4.85,4.41,2.48,2.48,2.47
44.78,-2.64,-2.64,-5.11,-5.11,5.11,4.82,4.34,2.47,2.47,2.46
45.23,-2.55,-2.55,-5.01,-5.00,5.01,4.78,4.27,2.45,2.45,2.46
45.68,-2.47,-2.47,-4.91,-4.91,4.91,4.74,4.20,2.44,2.44,2.44
46.13,-2.38,-2.39,-4.81,-4.81,4.82,4.70,4.14,2.44,2.43,2.43
46.60,-2.31,-2.31,-4.73,-4.72,4.73,4.67,4.09,2.41,2.42,2.42
47.06,-2.24,-2.24,-4.64,-4.64,4.64,4.63,4.03,2.40,2.40,2.40
47.53,-2.17,-2.18,-4.55,-4.56,4.56,4.59,3.98,2.39,2.38,2.38
48.01,-2.12,-2.12,-4.48,-4.48,4.48,4.55,3.93,2.36,2.36,2.36
48.49,-2.06,-2.06,-4.41,-4.40,4.40,4.51,3.89,2.34,2.34,2.35
48.97,-1.99,-2.00,-4.32,-4.33,4.32,4.47,3.84,2.33,2.33,2.33
49.46,-1.94,-1.94,-4.25,-4.25,4.25,4.42,3.80,2.31,2.31,2.31
49.96,-1.88,-1.88,-4.18,-4.18,4.17,4.38,3.77,2.29,2.29,2.30
50.46,-1.82,-1.82,-4.10,-4.10,4.10,4.34,3.73,2.28,2.27,2.28
50.96,-1.77,-1.77,-4.03,-4.03,4.03,4.30,3.70,2.26,2.26,2.26
51.47,-1.72,-1.72,-3.95,-3.95,3.96,4.25,3.67,2.24,2.24,2.23
51.99,-1.67,-1.67,-3.88,-3.88,3.89,4.21,3.64,2.22,2.22,2.21
52.51,-1.62,-1.63,-3.81,-3.81,3.82,4.16,3.61,2.20,2.19,2.19
53.03,-1.58,-1.59,-3.75,-3.76,3.75,4.11,3.58,2.17,2.17,2.17
53.56,-1.56,-1.55,-3.70,-3.69,3.69,4.07,3.55,2.13,2.14,2.14
54.10,-1.51,-1.51,-3.63,-3.63,3.62,4.02,3.53,2.11,2.11,2.12
54.64,-1.47,-1.47,-3.56,-3.57,3.56,3.97,3.50,2.09,2.09,2.09
55.18,-1.43,-1.43,-3.50,-3.50,3.50,3.92,3.48,2.07,2.08,2.07
55.74,-1.39,-1.39,-3.44,-3.44,3.44,3.88,3.45,2.05,2.05,2.04
56.29,-1.36,-1.36,-3.38,-3.38,3.38,3.83,3.43,2.02,2.02,2.02
56.86,-1.33,-1.33,-3.32,-3.32,3.32,3.78,3.40,1.99,1.99,1.99
57.42,-1.30,-1.31,-3.26,-3.27,3.25,3.72,3.38,1.95,1.94,1.96
58.00,-1.27,-1.26,-3.21,-3.20,3.19,3.67,3.35,1.92,1.93,1.94
58.58,-1.24,-1.21,-3.16,-3.13,3.13,3.62,3.32,1.89,1.92,1.92
59.16,-1.12,-1.16,-3.02,-3.06,3.07,3.57,3.29,1.95,1.91,1.90
59.76,-1.12,-1.12,-2.99,-2.99,3.01,3.51,3.26,1.89,1.89,1.87
60.35,-1.11,-1.10,-2.96,-2.95,2.96,3.46,3.23,1.85,1.87,1.85
60.96,-1.09,-1.09,-2.92,-2.91,2.91,3.40,3.19,1.82,1.82,1.83
61.57,-1.07,-1.07,-2.87,-2.87,2.86,3.35,3.15,1.79,1.79,1.80
62.18,-1.05,-1.05,-2.82,-2.83,2.82,3.29,3.11,1.77,1.77,1.77
62.80,-1.04,-1.03,-2.79,-2.78,2.78,3.24,3.07,1.74,1.74,1.75
63.43,-1.01,-1.01,-2.74,-2.74,2.74,3.18,3.03,1.73,1.72,1.73
64.07,-0.99,-0.99,-2.69,-2.69,2.69,3.12,2.98,1.70,1.70,1.70
64.71,-0.97,-0.97,-2.65,-2.65,2.65,3.06,2.93,1.68,1.68,1.68
65.35,-0.94,-0.94,-2.60,-2.60,2.60,3.00,2.88,1.66,1.66,1.66
66.01,-0.92,-0.92,-2.56,-2.56,2.56,2.95,2.83,1.64,1.64,1.64
66.67,-0.90,-0.90,-2.52,-2.52,2.52,2.89,2.77,1.62,1.62,1.62
67.33,-0.87,-0.88,-2.47,-2.47,2.48,2.82,2.72,1.61,1.60,1.60
68.01,-0.86,-0.86,-2.43,-2.43,2.44,2.76,2.66,1.58,1.58,1.57
68.69,-0.84,-0.84,-2.39,-2.39,2.39,2.70,2.60,1.55,1.55,1.55
69.37,-0.83,-0.83,-2.36,-2.36,2.35,2.64,2.53,1.52,1.52,1.53
70.07,-0.81,-0.81,-2.33,-2.32,2.31,2.58,2.47,1.50,1.50,1.52
70.77,-0.78,-0.78,-2.27,-2.27,2.27,2.51,2.41,1.49,1.49,1.49
71.48,-0.75,-0.76,-2.21,-2.22,2.23,2.45,2.34,1.48,1.47,1.46
72.19,-0.74,-0.74,-2.18,-2.18,2.18,2.39,2.27,1.44,1.45,1.44
72.91,-0.72,-0.72,-2.14,-2.14,2.14,2.32,2.20,1.42,1.42,1.42
73.64,-0.70,-0.70,-2.10,-2.10,2.10,2.26,2.14,1.40,1.40,1.40
74.38,-0.68,-0.68,-2.06,-2.06,2.05,2.19,2.07,1.37,1.37,1.38
75.12,-0.66,-0.66,-2.01,-2.02,2.01,2.13,2.00,1.35,1.35,1.35
75.87,-0.65,-0.65,-1.97,-1.97,1.97,2.06,1.93,1.32,1.32,1.32
76.63,-0.63,-0.63,-1.92,-1.92,1.92,2.00,1.86,1.29,1.30,1.29
77.40,-0.60,-0.61,-1.86,-1.87,1.88,1.93,1.79,1.28,1.27,1.26
78.17,-0.59,-0.59,-1.82,-1.82,1.83,1.86,1.72,1.24,1.24,1.23
78.95,-0.58,-0.57,-1.78,-1.77,1.77,1.80,1.65,1.19,1.20,1.20
79.74,-0.56,-0.56,-1.73,-1.73,1.72,1.73,1.59,1.16,1.16,1.16
80.54,-0.54,-0.54,-1.67,-1.67,1.66,1.67,1.52,1.12,1.12,1.13
81.35,-0.53,-0.53,-1.61,-1.61,1.60,1.60,1.45,1.07,1.08,1.08
82.16,-0.51,-0.52,-1.54,-1.54,1.54,1.53,1.38,1.03,1.03,1.03
82.98,-0.51,-0.50,-1.48,-1.48,1.48,1.46,1.32,0.97,0.98,0.97
83.81,-0.49,-0.49,-1.41,-1.41,1.42,1.40,1.25,0.93,0.93,0.92
84.65,-0.48,-0.48,-1.35,-1.35,1.36,1.33,1.19,0.87,0.87,0.87
85.50,-0.47,-0.47,-1.28,-1.29,1.29,1.26,1.12,0.82,0.82,0.81
86.35,-0.47,-0.47,-1.23,-1.23,1.22,1.20,1.06,0.75,0.76,0.76
87.22,-0.46,-0.46,-1.16,-1.16,1.15,1.13,0.99,0.69,0.69,0.70
88.09,-0.45,-0.45,-1.09,-1.09,1.08,1.06,0.93,0.63,0.63,0.64
88.97,-0.45,-0.45,-1.02,-1.02,1.01,1.00,0.87,0.56,0.56,0.57
89.86,-0.44,-0.44,-0.94,-0.94,0.94,0.93,0.81,0.50,0.50,0.50
90.76,-0.43,-0.43,-0.85,-0.86,0.87,0.87,0.75,0.44,0.43,0.42
91.66,-0.43,-0.43,-0.78,-0.78,0.79,0.80,0.69,0.36,0.37,0.35
92.58,-0.42,-0.42,-0.72,-0.72,0.72,0.74,0.63,0.30,0.30,0.30
93.51,-0.41,-0.41,-0.65,-0.65,0.65,0.67,0.57,0.24,0.24,0.24
94.44,-0.41,-0.41,-0.59,-0.59,0.58,0.61,0.51,0.17,0.17,0.18
95.39,-0.40,-0.40,-0.52,-0.52,0.51,0.55,0.45,0.11,0.11,0.12
96.34,-0.40,-0.40,-0.45,-0.45,0.45,0.48,0.39,0.05,0.05,0.05
97.30,-0.39,-0.39,-0.38,-0.38,0.38,0.42,0.34,-0.01,-0.01,-0.01
98.28,-0.39,-0.39,-0.32,-0.32,0.32,0.36,0.28,-0.07,-0.07,-0.07
99.26,-0.39,-0.39,-0.26,-0.26,0.27,0.30,0.22,-0.12,-0.12,-0.13
100.25,-0.39,-0.39,-0.21,-0.21,0.21,0.24,0.17,-0.18,-0.18,-0.18
101.25,-0.40,-0.40,-0.16,-0.16,0.17,0.18,0.12,-0.23,-0.24,-0.24
102.27,-0.42,-0.41,-0.13,-0.12,0.13,0.12,0.06,-0.30,-0.29,-0.29
103.29,-0.43,-0.43,-0.09,-0.09,0.09,0.06,0.01,-0.34,-0.34,-0.34
104.32,-0.45,-0.45,-0.05,-0.06,0.06,0.01,-0.04,-0.39,-0.39,-0.40
105.37,-0.48,-0.48,-0.03,-0.03,0.03,-0.05,-0.09,-0.45,-0.44,-0.45
106.42,-0.50,-0.51,-0.00,-0.01,0.01,-0.10,-0.14,-0.49,-0.50,-0.50
107.48,-0.54,-0.53,0.01,0.01,-0.01,-0.16,-0.19,-0.55,-0.55,-0.55
108.56,-0.56,-0.56,0.04,0.04,-0.04,-0.21,-0.24,-0.60,-0.60,-0.60
109.64,-0.59,-0.59,0.06,0.06,-0.06,-0.26,-0.29,-0.65,-0.66,-0.65
110.74,-0.62,-0.62,0.08,0.09,-0.09,-0.31,-0.33,-0.71,-0.71,-0.70
111.85,-0.64,-0.64,0.12,0.12,-0.12,-0.36,-0.38,-0.77,-0.76,-0.76
112.97,-0.65,-0.65,0.16,0.16,-0.16,-0.41,-0.42,-0.81,-0.81,-0.81
114.10,-0.66,-0.66,0.20,0.20,-0.20,-0.46,-0.46,-0.86,-0.86,-0.86
115.24,-0.67,-0.67,0.25,0.25,-0.24,-0.51,-0.50,-0.91,-0.91,-0.92
116.39,-0.67,-0.67,0.29,0.29,-0.29,-0.55,-0.53,-0.96,-0.96,-0.96
117.55,-0.67,-0.67,0.34,0.34,-0.34,-0.59,-0.57,-1.01,-1.01,-1.01
118.73,-0.69,-0.68,0.37,0.38,-0.38,-0.64,-0.60,-1.07,-1.06,-1.06
119.92,-0.67,-0.68,0.44,0.43,-0.43,-0.68,-0.63,-1.10,-1.11,-1.11
121.12,-0.70,-0.69,0.47,0.47,-0.47,-0.72,-0.66,-1.17,-1.17,-1.17
122.33,-0.70,-0.70,0.52,0.52,-0.51,-0.76,-0.69,-1.21,-1.22,-1.22
123.55,-0.72,-0.72,0.55,0.56,-0.55,-0.79,-0.72,-1.27,-1.27,-1.27
124.79,-0.72,-0.72,0.59,0.59,-0.59,-0.83,-0.74,-1.31,-1.31,-1.31
126.03,-0.74,-0.74,0.63,0.62,-0.62,-0.87,-0.76,-1.36,-1.36,-1.37
127.29,-0.76,-0.76,0.66,0.65,-0.65,-0.90,-0.78,-1.41,-1.41,-1.42
128.57,-0.79,-0.79,0.67,0.68,-0.68,-0.93,-0.80,-1.47,-1.47,-1.46
129.85,-0.82,-0.82,0.71,0.71,-0.71,-0.96,-0.81,-1.53,-1.53,-1.53
131.15,-0.86,-0.86,0.73,0.73,-0.73,-0.99,-0.83,-1.59,-1.59,-1.59
132.46,-0.90,-0.89,0.75,0.76,-0.76,-1.02,-0.84,-1.66,-1.65,-1.65
133.79,-0.92,-0.92,0.79,0.78,-0.79,-1.05,-0.85,-1.71,-1.71,-1.71
135.12,-0.94,-0.94,0.82,0.82,-0.82,-1.07,-0.86,-1.76,-1.76,-1.76
136.48,-0.96,-0.96,0.85,0.85,-0.85,-1.09,-0.86,-1.81,-1.81,-1.81
137.84,-0.97,-0.97,0.89,0.89,-0.89,-1.12,-0.87,-1.86,-1.87,-1.86
139.22,-0.99,-0.99,0.93,0.93,-0.93,-1.14,-0.88,-1.92,-1.92,-1.92
140.61,-1.00,-1.00,0.98,0.97,-0.98,-1.16,-0.88,-1.98,-1.98,-1.98
142.02,-1.02,-1.02,1.01,1.02,-1.02,-1.18,-0.88,-2.04,-2.04,-2.03
143.44,-1.02,-1.03,1.07,1.06,-1.06,-1.19,-0.88,-2.08,-2.09,-2.09
144.87,-1.04,-1.03,1.11,1.11,-1.11,-1.21,-0.88,-2.15,-2.14,-2.15
146.32,-1.04,-1.04,1.15,1.15,-1.15,-1.22,-0.89,-2.19,-2.19,-2.19
147.78,-1.04,-1.05,1.20,1.19,-1.19,-1.24,-0.89,-2.23,-2.24,-2.24
149.26,-1.05,-1.05,1.23,1.23,-1.23,-1.25,-0.89,-2.28,-2.28,-2.28
150.75,-1.06,-1.06,1.27,1.27,-1.27,-1.26,-0.89,-2.33,-2.33,-2.33
152.26,-1.06,-1.07,1.31,1.30,-1.30,-1.27,-0.89,-2.36,-2.37,-2.37
153.78,-1.08,-1.08,1.33,1.33,-1.33,-1.28,-0.89,-2.41,-2.41,-2.41
155.32,-1.09,-1.09,1.36,1.36,-1.36,-1.28,-0.89,-2.45,-2.45,-2.45
156.88,-1.11,-1.11,1.37,1.38,-1.38,-1.29,-0.89,-2.49,-2.48,-2.48
158.44,-1.12,-1.12,1.40,1.40,-1.39,-1.29,-0.89,-2.51,-2.51,-2.52
160.03,-1.14,-1.14,1.41,1.40,-1.40,-1.30,-0.89,-2.54,-2.54,-2.55
161.63,-1.17,-1.17,1.40,1.41,-1.41,-1.30,-0.89,-2.58,-2.57,-2.57
163.24,-1.19,-1.19,1.41,1.41,-1.41,-1.30,-0.90,-2.60,-2.60,-2.60
164.88,-1.22,-1.22,1.41,1.41,-1.41,-1.30,-0.90,-2.63,-2.63,-2.63
166.53,-1.24,-1.24,1.41,1.41,-1.42,-1.30,-0.91,-2.66,-2.66,-2.65
168.19,-1.26,-1.26,1.42,1.41,-1.42,-1.30,-0.91,-2.68,-2.68,-2.68
169.87,-1.29,-1.28,1.41,1.42,-1.42,-1.30,-0.92,-2.71,-2.71,-2.70
171.57,-1.29,-1.30,1.43,1.42,-1.43,-1.29,-0.92,-2.72,-2.73,-2.72
173.29,-1.31,-1.31,1.43,1.44,-1.44,-1.29,-0.93,-2.75,-2.74,-2.74
175.02,-1.31,-1.31,1.45,1.45,-1.45,-1.28,-0.94,-2.76,-2.76,-2.76
176.77,-1.32,-1.32,1.46,1.45,-1.45,-1.28,-0.95,-2.77,-2.78,-2.78
178.54,-1.34,-1.34,1.45,1.46,-1.46,-1.27,-0.96,-2.80,-2.79,-2.79
180.32,-1.35,-1.35,1.46,1.46,-1.46,-1.26,-0.97,-2.81,-2.81,-2.81
182.13,-1.37,-1.37,1.46,1.46,-1.46,-1.25,-0.98,-2.83,-2.83,-2.83
183.95,-1.39,-1.39,1.46,1.46,-1.45,-1.24,-0.99,-2.84,-2.84,-2.85
185.79,-1.42,-1.42,1.44,1.44,-1.44,-1.23,-1.01,-2.86,-2.86,-2.86
187.65,-1.45,-1.45,1.42,1.42,-1.42,-1.22,-1.02,-2.87,-2.88,-2.87
189.52,-1.49,-1.48,1.39,1.40,-1.41,-1.21,-1.04,-2.90,-2.89,-2.88
191.42,-1.52,-1.52,1.38,1.38,-1.38,-1.20,-1.05,-2.91,-2.90,-2.90
193.33,-1.54,-1.55,1.37,1.36,-1.36,-1.18,-1.07,-2.90,-2.91,-2.91
195.27,-1.59,-1.58,1.33,1.34,-1.34,-1.17,-1.08,-2.93,-2.92,-2.92
197.22,-1.62,-1.62,1.31,1.31,-1.32,-1.15,-1.10,-2.94,-2.93,-2.93
199.19,-1.64,-1.65,1.30,1.29,-1.29,-1.14,-1.12,-2.93,-2.94,-2.94
201.18,-1.69,-1.68,1.26,1.27,-1.27,-1.12,-1.14,-2.96,-2.95,-2.95
203.19,-1.72,-1.72,1.24,1.24,-1.24,-1.10,-1.15,-2.96,-2.96,-2.96
205.23,-1.75,-1.76,1.22,1.22,-1.22,-1.08,-1.17,-2.97,-2.97,-2.97
207.28,-1.79,-1.79,1.19,1.19,-1.19,-1.07,-1.19,-2.98,-2.98,-2.98
209.35,-1.83,-1.83,1.15,1.16,-1.16,-1.05,-1.21,-2.99,-2.98,-2.98
211.44,-1.86,-1.86,1.13,1.13,-1.13,-1.03,-1.22,-2.99,-2.99,-2.99
213.56,-1.90,-1.90,1.09,1.09,-1.09,-1.01,-1.24,-2.99,-2.99,-2.99
215.69,-1.94,-1.94,1.05,1.05,-1.05,-0.99,-1.26,-2.99,-2.99,-2.99
217.85,-1.99,-1.99,1.01,1.01,-1.00,-0.97,-1.27,-2.99,-2.99,-3.00
220.03,-2.04,-2.04,0.96,0.96,-0.96,-0.95,-1.28,-3.00,-2.99,-3.00
222.23,-2.08,-2.08,0.91,0.91,-0.91,-0.92,-1.30,-2.99,-2.99,-2.99
224.45,-2.13,-2.13,0.86,0.86,-0.86,-0.90,-1.31,-2.99,-2.99,-2.99
226.70,-2.18,-2.18,0.81,0.81,-0.81,-0.88,-1.32,-2.99,-2.99,-2.99
228.96,-2.23,-2.22,0.74,0.76,-0.76,-0.85,-1.32,-2.99,-2.99,-2.98
231.25,-2.26,-2.26,0.72,0.71,-0.72,-0.83,-1.33,-2.98,-2.99,-2.98
233.57,-2.29,-2.30,0.69,0.68,-0.69,-0.81,-1.33,-2.98,-2.99,-2.98
235.90,-2.32,-2.32,0.66,0.66,-0.67,-0.78,-1.33,-2.99,-2.99,-2.98
238.26,-2.33,-2.33,0.64,0.65,-0.66,-0.76,-1.33,-2.99,-2.98,-2.97
240.64,-2.32,-2.32,0.65,0.65,-0.65,-0.73,-1.33,-2.97,-2.97,-2.97
243.05,-2.31,-2.31,0.65,0.65,-0.65,-0.70,-1.32,-2.96,-2.96,-2.96
245.48,-2.30,-2.30,0.65,0.65,-0.65,-0.68,-1.31,-2.95,-2.95,-2.95
247.93,-2.28,-2.28,0.66,0.66,-0.66,-0.65,-1.30,-2.94,-2.94,-2.94
250.41,-2.27,-2.27,0.66,0.66,-0.66,-0.62,-1.28,-2.93,-2.93,-2.93
252.92,-2.25,-2.26,0.67,0.66,-0.66,-0.60,-1.26,-2.91,-2.92,-2.92
255.45,-2.25,-2.25,0.66,0.66,-0.66,-0.57,-1.24,-2.91,-2.91,-2.91
258.00,-2.25,-2.25,0.65,0.66,-0.65,-0.54,-1.21,-2.90,-2.90,-2.90
260.58,-2.25,-2.26,0.65,0.64,-0.63,-0.51,-1.18,-2.88,-2.89,-2.90
263.19,-2.27,-2.27,0.62,0.62,-0.61,-0.48,-1.15,-2.88,-2.88,-2.89
265.82,-2.29,-2.29,0.59,0.60,-0.59,-0.45,-1.12,-2.88,-2.87,-2.88
268.48,-2.31,-2.31,0.56,0.56,-0.56,-0.42,-1.08,-2.87,-2.87,-2.87
271.16,-2.34,-2.34,0.52,0.52,-0.52,-0.39,-1.04,-2.86,-2.87,-2.86
273.87,-2.38,-2.37,0.47,0.48,-0.49,-0.36,-1.00,-2.87,-2.86,-2.85
276.61,-2.40,-2.40,0.44,0.44,-0.45,-0.33,-0.95,-2.85,-2.85,-2.84
279.38,-2.43,-2.43,0.41,0.41,-0.41,-0.30,-0.90,-2.84,-2.84,-2.84
282.17,-2.46,-2.46,0.38,0.38,-0.38,-0.27,-0.85,-2.84,-2.83,-2.84
284.99,-2.49,-2.50,0.35,0.34,-0.34,-0.23,-0.80,-2.83,-2.83,-2.84
287.84,-2.54,-2.54,0.30,0.30,-0.30,-0.20,-0.75,-2.84,-2.83,-2.84
290.72,-2.58,-2.58,0.26,0.26,-0.25,-0.17,-0.69,-2.83,-2.84,-2.84
293.63,-2.63,-2.63,0.21,0.21,-0.21,-0.14,-0.64,-2.84,-2.84,-2.84
296.57,-2.68,-2.68,0.15,0.16,-0.16,-0.10,-0.58,-2.84,-2.84,-2.83
299.53,-2.73,-2.73,0.11,0.11,-0.11,-0.07,-0.52,-2.84,-2.84,-2.84
302.53,-2.78,-2.78,0.06,0.06,-0.06,-0.03,-0.46,-2.84,-2.84,-2.84
305.55,-2.84,-2.84,-0.00,0.01,-0.01,-0.00,-0.40,-2.85,-2.84,-2.84
308.61,-2.89,-2.89,-0.05,-0.05,0.05,0.03,-0.34,-2.84,-2.84,-2.84
311.69,-2.94,-2.95,-0.10,-0.11,0.11,0.07,-0.28,-2.83,-2.84,-2.84
314.81,-3.01,-3.01,-0.17,-0.17,0.17,0.10,-0.21,-2.84,-2.84,-2.84
317.96,-3.08,-3.07,-0.24,-0.23,0.24,0.14,-0.15,-2.84,-2.83,-2.84
321.14,-3.14,-3.15,-0.30,-0.31,0.31,0.17,-0.08,-2.83,-2.84,-2.84
324.35,-3.22,-3.22,-0.38,-0.38,0.39,0.21,-0.02,-2.83,-2.84,-2.84
327.59,-3.30,-3.30,-0.46,-0.46,0.46,0.25,0.05,-2.84,-2.83,-2.84
330.87,-3.38,-3.38,-0.54,-0.54,0.54,0.28,0.12,-2.84,-2.83,-2.84
334.18,-3.44,-3.45,-0.61,-0.62,0.62,0.32,0.18,-2.82,-2.83,-2.83
337.52,-3.51,-3.51,-0.69,-0.69,0.69,0.35,0.25,-2.82,-2.82,-2.82
340.90,-3.57,-3.57,-0.76,-0.76,0.76,0.39,0.32,-2.81,-2.81,-2.81
344.30,-3.62,-3.62,-0.82,-0.82,0.81,0.43,0.39,-2.81,-2.81,-2.80
347.75,-3.65,-3.65,-0.88,-0.87,0.85,0.46,0.46,-2.80,-2.80,-2.78
351.23,-3.66,-3.66,-0.89,-0.90,0.88,0.50,0.53,-2.78,-2.78,-2.77
354.74,-3.66,-3.66,-0.91,-0.91,0.90,0.53,0.60,-2.76,-2.76,-2.75
358.28,-3.64,-3.64,-0.90,-0.91,0.90,0.57,0.67,-2.74,-2.74,-2.74
361.87,-3.62,-3.62,-0.90,-0.90,0.90,0.61,0.74,-2.72,-2.72,-2.72
365.49,-3.58,-3.58,-0.89,-0.89,0.88,0.64,0.81,-2.70,-2.70,-2.69
369.14,-3.53,-3.53,-0.86,-0.86,0.86,0.68,0.89,-2.67,-2.67,-2.67
372.83,-3.48,-3.48,-0.83,-0.83,0.83,0.71,0.96,-2.65,-2.65,-2.65
376.56,-3.43,-3.43,-0.80,-0.80,0.81,0.75,1.03,-2.62,-2.63,-2.63
380.33,-3.39,-3.39,-0.78,-0.78,0.78,0.78,1.10,-2.61,-2.60,-2.61
384.13,-3.35,-3.35,-0.76,-0.76,0.77,0.81,1.18,-2.59,-2.58,-2.59
387.97,-3.31,-3.31,-0.74,-0.74,0.75,0.85,1.25,-2.56,-2.56,-2.57
391.85,-3.29,-3.29,-0.74,-0.74,0.75,0.88,1.32,-2.55,-2.54,-2.55
395.77,-3.27,-3.27,-0.74,-0.75,0.75,0.91,1.40,-2.52,-2.53,-2.53
399.73,-3.27,-3.27,-0.76,-0.75,0.76,0.94,1.47,-2.51,-2.51,-2.51
403.72,-3.27,-3.27,-0.77,-0.77,0.77,0.98,1.54,-2.50,-2.49,-2.50
407.76,-3.27,-3.27,-0.79,-0.79,0.79,1.01,1.61,-2.48,-2.48,-2.48
411.84,-3.28,-3.28,-0.82,-0.82,0.82,1.04,1.69,-2.46,-2.46,-2.46
415.96,-3.30,-3.30,-0.86,-0.85,0.85,1.07,1.76,-2.45,-2.44,-2.44
420.12,-3.31,-3.31,-0.88,-0.89,0.88,1.09,1.83,-2.43,-2.43,-2.43
424.32,-3.32,-3.33,-0.91,-0.92,0.92,1.12,1.90,-2.40,-2.41,-2.41
428.56,-3.34,-3.34,-0.95,-0.95,0.95,1.15,1.96,-2.39,-2.39,-2.39
432.85,-3.36,-3.36,-0.99,-0.99,0.98,1.17,2.03,-2.38,-2.38,-2.37
437.18,-3.37,-3.37,-1.02,-1.02,1.01,1.20,2.09,-2.36,-2.36,-2.35
441.55,-3.38,-3.38,-1.04,-1.04,1.04,1.22,2.15,-2.34,-2.34,-2.34
445.96,-3.39,-3.39,-1.07,-1.07,1.07,1.25,2.21,-2.32,-2.32,-2.32
450.42,-3.40,-3.40,-1.10,-1.10,1.10,1.27,2.27,-2.30,-2.30,-2.30
454.93,-3.41,-3.41,-1.14,-1.13,1.13,1.30,2.32,-2.28,-2.28,-2.27
459.48,-3.42,-3.42,-1.16,-1.16,1.16,1.32,2.37,-2.26,-2.26,-2.26
464.07,-3.43,-3.43,-1.19,-1.19,1.19,1.34,2.41,-2.24,-2.24,-2.24
468.71,-3.44,-3.44,-1.22,-1.22,1.22,1.36,2.45,-2.22,-2.22,-2.22
