frequency,raw
20.00,5.17
20.20,5.22
20.40,5.26
20.61,5.30
20.81,5.35
21.02,5.39
21.23,5.43
21.44,5.48
21.66,5.53
21.87,5.58
22.09,5.63
22.31,5.67
22.54,5.71
22.76,5.75
22.99,5.79
23.22,5.83
23.45,5.87
23.69,5.91
23.92,5.95
24.16,5.99
24.40,6.03
24.65,6.07
24.89,6.11
25.14,6.15
25.39,6.19
25.65,6.24
25.91,6.27
26.16,6.31
26.43,6.35
26.69,6.38
26.96,6.41
27.23,6.44
27.50,6.47
27.77,6.49
28.05,6.51
28.33,6.54
28.62,6.56
28.90,6.58
29.19,6.61
29.48,6.63
29.78,6.65
30.08,6.67
30.38,6.69
30.68,6.71
30.99,6.73
31.30,6.74
31.61,6.76
31.93,6.77
32.24,6.78
32.57,6.79
32.89,6.81
33.22,6.82
33.55,6.84
33.89,6.85
34.23,6.87
34.57,6.88
34.92,6.90
35.27,6.91
35.62,6.92
35.97,6.93
36.33,6.93
36.70,6.94
37.06,6.95
37.43,6.95
37.81,6.96
38.19,6.97
38.57,6.97
38.95,6.98
39.34,6.98
39.74,6.98
40.14,6.98
40.54,6.98
40.94,6.98
41.35,6.98
41.76,6.98
42.18,6.98
42.60,6.98
43.03,6.98
43.46,6.98
43.90,6.98
44.33,6.97
44.78,6.97
45.23,6.96
45.68,6.96
46.13,6.95
46.60,6.95
47.06,6.94
47.53,6.93
48.01,6.92
48.49,6.91
48.97,6.90
49.46,6.89
49.96,6.88
50.46,6.87
50.96,6.86
51.47,6.85
51.99,6.83
52.51,6.82
53.03,6.80
53.56,6.79
54.10,6.77
54.64,6.76
55.18,6.74
55.74,6.72
56.29,6.71
56.86,6.69
57.42,6.67
58.00,6.65
58.58,6.63
59.16,6.61
59.76,6.59
60.35,6.56
60.96,6.54
61.57,6.52
62.18,6.50
62.80,6.47
63.43,6.45
64.07,6.42
64.71,6.40
65.35,6.38
66.01,6.35
66.67,6.32
67.33,6.30
68.01,6.27
68.69,6.24
69.37,6.22
70.07,6.19
70.77,6.16
71.48,6.13
72.19,6.10
72.91,6.07
73.64,6.03
74.38,6.00
75.12,5.97
75.87,5.94
76.63,5.91
77.40,5.87
78.17,5.84
78.95,5.81
79.74,5.77
80.54,5.74
81.35,5.70
82.16,5.67
82.98,5.63
83.81,5.59
84.65,5.56
85.50,5.52
86.35,5.48
87.22,5.44
88.09,5.41
88.97,5.37
89.86,5.33
90.76,5.29
91.66,5.25
92.58,5.22
93.51,5.17
94.44,5.13
95.39,5.09
96.34,5.05
97.30,5.01
98.28,4.96
99.26,4.92
100.25,4.88
101.25,4.84
102.27,4.79
103.29,4.75
104.32,4.71
105.37,4.67
106.42,4.62
107.48,4.58
108.56,4.54
109.64,4.49
110.74,4.45
111.85,4.40
112.97,4.36
114.10,4.31
115.24,4.27
116.39,4.22
117.55,4.17
118.73,4.13
119.92,4.08
121.12,4.04
122.33,3.99
123.55,3.94
124.79,3.89
126.03,3.85
127.29,3.80
128.57,3.75
129.85,3.70
131.15,3.65
132.46,3.61
133.79,3.56
135.12,3.51
136.48,3.46
137.84,3.41
139.22,3.36
140.61,3.31
142.02,3.26
143.44,3.21
144.87,3.16
146.32,3.11
147.78,3.06
149.26,3.01
150.75,2.96
152.26,2.90
153.78,2.85
155.32,2.80
156.88,2.74
158.44,2.69
160.03,2.63
161.63,2.58
163.24,2.52
164.88,2.47
166.53,2.41
168.19,2.36
169.87,2.31
171.57,2.27
173.29,2.22
175.02,2.18
176.77,2.14
178.54,2.10
180.32,2.07
182.13,2.04
183.95,2.01
185.79,1.99
187.65,1.96
189.52,1.94
191.42,1.91
193.33,1.89
195.27,1.86
197.22,1.82
199.19,1.78
201.18,1.74
203.19,1.70
205.23,1.65
207.28,1.61
209.35,1.56
211.44,1.51
213.56,1.46
215.69,1.42
217.85,1.37
220.03,1.32
222.23,1.28
224.45,1.23
226.70,1.18
228.96,1.14
231.25,1.09
233.57,1.05
235.90,1.00
238.26,0.96
240.64,0.92
243.05,0.87
245.48,0.83
247.93,0.79
250.41,0.74
252.92,0.70
255.45,0.66
258.00,0.62
260.58,0.58
263.19,0.53
265.82,0.49
268.48,0.45
271.16,0.41
273.87,0.37
276.61,0.33
279.38,0.29
282.17,0.25
284.99,0.22
287.84,0.18
290.72,0.14
293.63,0.10
296.57,0.06
299.53,0.03
302.53,-0.01
305.55,-0.04
308.61,-0.08
311.69,-0.12
314.81,-0.15
317.96,-0.19
321.14,-0.22
324.35,-0.26
327.59,-0.29
330.87,-0.32
334.18,-0.36
337.52,-0.39
340.90,-0.42
344.30,-0.45
347.75,-0.48
351.23,-0.51
354.74,-0.54
358.28,-0.57
361.87,-0.60
365.49,-0.63
369.14,-0.66
372.83,-0.68
376.56,-0.71
380.33,-0.74
384.13,-0.77
387.97,-0.80
391.85,-0.82
395.77,-0.85
399.73,-0.87
403.72,-0.90
407.76,-0.92
411.84,-0.95
415.96,-0.97
420.12,-1.00
424.32,-1.02
428.56,-1.04
432.85,-1.07
437.18,-1.09
441.55,-1.11
445.96,-1.13
450.42,-1.15
454.93,-1.17
459.48,-1.19
464.07,-1.21
468.71,-1.23
473.40,-1.25
478.13,-1.27
482.91,-1.28
487.74,-1.30
492.62,-1.32
497.55,-1.33
502.52,-1.35
507.55,-1.36
512.62,-1.38
517.75,-1.39
522.93,-1.40
528.16,-1.41
533.44,-1.43
538.77,-1.44
544.16,-1.45
549.60,-1.45
555.10,-1.46
560.65,-1.47
566.25,-1.48
571.92,-1.49
577.64,-1.49
583.41,-1.50
589.25,-1.51
595.14,-1.51
601.09,-1.52
607.10,-1.52
613.17,-1.52
619.30,-1.53
625.50,-1.53
631.75,-1.53
638.07,-1.53
644.45,-1.53
650.89,-1.53
657.40,-1.52
663.98,-1.52
670.62,-1.51
677.32,-1.50
684.10,-1.50
690.94,-1.49
697.85,-1.48
704.83,-1.47
711.87,-1.46
718.99,-1.44
726.18,-1.43
733.44,-1.41
740.78,-1.39
748.19,-1.38
755.67,-1.36
763.23,-1.33
770.86,-1.31
778.57,-1.29
786.35,-1.26
794.22,-1.23
802.16,-1.20
810.18,-1.17
818.28,-1.14
826.46,-1.10
834.73,-1.06
843.08,-1.02
851.51,-0.98
860.02,-0.94
868.62,-0.89
877.31,-0.85
886.08,-0.79
894.94,-0.74
903.89,-0.69
912.93,-0.63
922.06,-0.57
931.28,-0.51
940.59,-0.44
950.00,-0.38
959.50,-0.31
969.09,-0.24
978.78,-0.16
988.57,-0.09
998.46,-0.01
1008.44,0.07
1018.53,0.15
1028.71,0.23
1039.00,0.31
1049.39,0.39
1059.88,0.48
1070.48,0.57
1081.19,0.65
1092.00,0.74
1102.92,0.83
1113.95,0.92
1125.09,1.01
1136.34,1.10
1147.70,1.19
1159.18,1.28
1170.77,1.37
1182.48,1.46
1194.30,1.55
1206.25,1.64
1218.31,1.73
1230.49,1.82
1242.80,1.91
1255.22,2.00
1267.78,2.09
1280.45,2.19
1293.26,2.28
1306.19,2.37
1319.25,2.46
1332.45,2.56
1345.77,2.65
1359.23,2.74
1372.82,2.84
1386.55,2.93
1400.41,3.03
1414.42,3.13
1428.56,3.22
1442.85,3.32
1457.28,3.42
1471.85,3.52
1486.57,3.62
1501.43,3.72
1516.45,3.83
1531.61,3.93
1546.93,4.04
1562.40,4.15
1578.02,4.26
1593.80,4.36
1609.74,4.48
1625.84,4.59
1642.10,4.70
1658.52,4.82
1675.10,4.94
1691.85,5.06
1708.77,5.17
1725.86,5.30
1743.12,5.42
1760.55,5.54
1778.15,5.66
1795.94,5.78
1813.90,5.90
1832.03,6.02
1850.36,6.14
1868.86,6.26
1887.55,6.37
1906.42,6.48
1925.49,6.58
1944.74,6.69
1964.19,6.78
1983.83,6.87
2003.67,6.96
2023.71,7.03
2043.94,7.10
2064.38,7.18
2085.03,7.24
2105.88,7.30
2126.94,7.36
2148.20,7.42
2169.69,7.47
2191.38,7.52
2213.30,7.56
2235.43,7.60
2257.78,7.62
2280.36,7.64
2303.17,7.65
2326.20,7.63
2349.46,7.61
2372.95,7.58
2396.68,7.53
2420.65,7.48
2444.86,7.41
2469.31,7.33
2494.00,7.26
2518.94,7.16
2544.13,7.05
2569.57,6.95
2595.27,6.82
2621.22,6.69
2647.43,6.55
2673.90,6.39
2700.64,6.23
2727.65,6.05
2754.93,5.86
2782.48,5.66
2810.30,5.47
2838.40,5.27
2866.79,5.08
2895.46,4.88
2924.41,4.75
2953.65,4.62
2983.19,4.49
3013.02,4.39
3043.15,4.33
3073.58,4.26
3104.32,4.22
3135.36,4.18
3166.72,4.13
3198.38,4.09
3230.37,4.04
3262.67,3.99
3295.30,3.93
3328.25,3.87
3361.53,3.82
3395.15,3.76
3429.10,3.71
3463.39,3.66
3498.03,3.61
3533.01,3.57
3568.34,3.54
3604.02,3.51
3640.06,3.49
3676.46,3.48
3713.22,3.48
3750.36,3.47
3787.86,3.48
3825.74,3.48
3864.00,3.49
3902.64,3.50
3941.66,3.50
3981.08,3.51
4020.89,3.52
4061.10,3.53
4101.71,3.53
4142.73,3.55
4184.15,3.57
4226.00,3.59
4268.26,3.61
4310.94,3.63
4354.05,3.65
4397.59,3.64
4441.56,3.62
4485.98,3.60
4530.84,3.54
4576.15,3.46
4621.91,3.38
4668.13,3.26
4714.81,3.14
4761.96,3.02
4809.58,2.89
4857.67,2.76
4906.25,2.65
4955.31,2.55
5004.87,2.45
5054.91,2.42
5105.46,2.38
5156.52,2.36
5208.08,2.41
5260.16,2.46
5312.77,2.53
5365.89,2.66
5419.55,2.80
5473.75,2.97
5528.49,3.17
5583.77,3.37
5639.61,3.55
5696.00,3.72
5752.96,3.89
5810.49,4.05
5868.60,4.14
5927.28,4.23
5986.56,4.32
6046.42,4.37
6106.89,4.41
6167.96,4.44
6229.64,4.44
6291.93,4.44
6354.85,4.41
6418.40,4.37
6482.58,4.33
6547.41,4.29
6612.88,4.26
6679.01,4.22
6745.80,4.21
6813.26,4.20
6881.39,4.19
6950.21,4.20
7019.71,4.22
7089.91,4.24
7160.81,4.26
7232.41,4.29
7304.74,4.31
7377.79,4.31
7451.56,4.30
7526.08,4.25
7601.34,4.12
7677.35,3.99
7754.13,3.86
7831.67,3.68
7909.98,3.50
7989.08,3.32
8068.98,3.26
8149.67,3.22
8231.16,3.18
8313.47,3.02
8396.61,2.83
8480.57,2.64
8565.38,2.32
8651.03,1.96
8737.54,1.60
8824.92,1.22
8913.17,0.84
9002.30,0.45
9092.32,0.13
9183.25,-0.19
9275.08,-0.47
9367.83,-0.66
9461.51,-0.85
9556.12,-0.96
9651.68,-1.02
9748.20,-1.07
9845.68,-1.04
9944.14,-1.00
10043.58,-0.93
10144.02,-0.83
10245.46,-0.72
10347.91,-0.63
10451.39,-0.53
10555.91,-0.44
10661.46,-0.42
10768.08,-0.45
10875.76,-0.48
10984.52,-0.67
11094.36,-0.90
11205.31,-1.14
11317.36,-1.52
11430.53,-1.91
11544.84,-2.32
11660.29,-2.76
11776.89,-3.20
11894.66,-3.56
12013.60,-3.91
12133.74,-4.26
12255.08,-4.52
12377.63,-4.68
12501.41,-4.83
12626.42,-4.80
12752.68,-4.78
12880.21,-4.59
13009.01,-4.31
13139.10,-4.03
13270.49,-3.61
13403.20,-3.07
13537.23,-2.53
13672.60,-1.94
13809.33,-1.29
13947.42,-0.64
14086.90,-0.06
14227.77,0.48
14370.04,1.02
14513.74,1.54
14658.88,1.84
14805.47,2.14
14953.52,2.44
15103.06,2.72
15254.09,2.99
15406.63,3.26
15560.70,3.57
15716.30,3.94
15873.47,4.31
16032.20,4.62
16192.52,4.70
16354.45,4.78
16517.99,4.79
16683.17,4.26
16850.01,3.73
17018.51,3.16
17188.69,2.25
17360.58,1.35
17534.18,0.43
17709.53,-0.51
17886.62,-1.46
18065.49,-2.41
18246.14,-3.36
18428.60,-4.32
18612.89,-5.32
18799.02,-6.34
18987.01,-7.36
19176.88,-8.32
19368.65,-9.29
19562.33,-10.11
19757.96,-10.66
19955.54,-11.20
