frequency,raw
20.00,9.45
20.20,9.49
20.40,9.53
20.61,9.57
20.81,9.61
21.02,9.65
21.23,9.69
21.44,9.74
21.66,9.78
21.87,9.82
22.09,9.86
22.31,9.90
22.54,9.94
22.76,9.98
22.99,10.02
23.22,10.06
23.45,10.09
23.69,10.13
23.92,10.17
24.16,10.20
24.40,10.24
24.65,10.27
24.89,10.30
25.14,10.34
25.39,10.37
25.65,10.40
25.91,10.43
26.16,10.46
26.43,10.49
26.69,10.52
26.96,10.55
27.23,10.58
27.50,10.60
27.77,10.63
28.05,10.66
28.33,10.68
28.62,10.71
28.90,10.73
29.19,10.75
29.48,10.78
29.78,10.80
30.08,10.82
30.38,10.84
30.68,10.86
30.99,10.88
31.30,10.90
31.61,10.92
31.93,10.93
32.24,10.95
32.57,10.97
32.89,10.98
33.22,11.00
33.55,11.01
33.89,11.03
34.23,11.04
34.57,11.05
34.92,11.07
35.27,11.08
35.62,11.09
35.97,11.10
36.33,11.11
36.70,11.12
37.06,11.13
37.43,11.13
37.81,11.14
38.19,11.15
38.57,11.15
38.95,11.16
39.34,11.16
39.74,11.17
40.14,11.17
40.54,11.18
40.94,11.18
41.35,11.18
41.76,11.18
42.18,11.18
42.60,11.18
43.03,11.18
43.46,11.18
43.90,11.18
44.33,11.18
44.78,11.17
45.23,11.17
45.68,11.17
46.13,11.16
46.60,11.16
47.06,11.15
47.53,11.15
48.01,11.14
48.49,11.13
48.97,11.12
49.46,11.11
49.96,11.11
50.46,11.10
50.96,11.09
51.47,11.08
51.99,11.06
52.51,11.05
53.03,11.04
53.56,11.03
54.10,11.02
54.64,11.00
55.18,10.99
55.74,10.97
56.29,10.95
56.86,10.94
57.42,10.92
58.00,10.90
58.58,10.89
59.16,10.87
59.76,10.85
60.35,10.83
60.96,10.81
61.57,10.79
62.18,10.77
62.80,10.75
63.43,10.73
64.07,10.70
64.71,10.68
65.35,10.66
66.01,10.63
66.67,10.61
67.33,10.59
68.01,10.56
68.69,10.53
69.37,10.51
70.07,10.48
70.77,10.45
71.48,10.42
72.19,10.39
72.91,10.37
73.64,10.34
74.38,10.30
75.12,10.27
75.87,10.24
76.63,10.21
77.40,10.18
78.17,10.15
78.95,10.11
79.74,10.08
80.54,10.05
81.35,10.01
82.16,9.98
82.98,9.94
83.81,9.90
84.65,9.87
85.50,9.83
86.35,9.79
87.22,9.76
88.09,9.72
88.97,9.68
89.86,9.64
90.76,9.60
91.66,9.56
92.58,9.52
93.51,9.48
94.44,9.44
95.39,9.40
96.34,9.35
97.30,9.31
98.28,9.27
99.26,9.22
100.25,9.18
101.25,9.13
102.27,9.09
103.29,9.04
104.32,8.99
105.37,8.94
106.42,8.89
107.48,8.84
108.56,8.79
109.64,8.73
110.74,8.68
111.85,8.63
112.97,8.58
114.10,8.53
115.24,8.49
116.39,8.48
117.55,8.46
118.73,8.44
119.92,8.43
121.12,8.42
122.33,8.41
123.55,8.37
124.79,8.34
126.03,8.29
127.29,8.25
128.57,8.20
129.85,8.15
131.15,8.10
132.46,8.05
133.79,8.00
135.12,7.95
136.48,7.90
137.84,7.85
139.22,7.80
140.61,7.75
142.02,7.70
143.44,7.65
144.87,7.60
146.32,7.55
147.78,7.50
149.26,7.45
150.75,7.39
152.26,7.34
153.78,7.29
155.32,7.24
156.88,7.19
158.44,7.14
160.03,7.09
161.63,7.04
163.24,6.98
164.88,6.93
166.53,6.88
168.19,6.83
169.87,6.78
171.57,6.74
173.29,6.69
175.02,6.64
176.77,6.60
178.54,6.55
180.32,6.50
182.13,6.45
183.95,6.41
185.79,6.36
187.65,6.31
189.52,6.26
191.42,6.21
193.33,6.16
195.27,6.11
197.22,6.06
199.19,6.01
201.18,5.96
203.19,5.91
205.23,5.86
207.28,5.80
209.35,5.75
211.44,5.70
213.56,5.65
215.69,5.60
217.85,5.55
220.03,5.50
222.23,5.45
224.45,5.40
226.70,5.35
228.96,5.30
231.25,5.25
233.57,5.20
235.90,5.15
238.26,5.10
240.64,5.05
243.05,5.00
245.48,4.95
247.93,4.90
250.41,4.86
252.92,4.80
255.45,4.75
258.00,4.70
260.58,4.65
263.19,4.60
265.82,4.55
268.48,4.50
271.16,4.45
273.87,4.40
276.61,4.35
279.38,4.30
282.17,4.25
284.99,4.21
287.84,4.16
290.72,4.11
293.63,4.06
296.57,4.01
299.53,3.96
302.53,3.91
305.55,3.86
308.61,3.81
311.69,3.76
314.81,3.71
317.96,3.66
321.14,3.61
324.35,3.56
327.59,3.51
330.87,3.46
334.18,3.41
337.52,3.36
340.90,3.31
344.30,3.26
347.75,3.21
351.23,3.16
354.74,3.11
358.28,3.06
361.87,3.01
365.49,2.96
369.14,2.91
372.83,2.86
376.56,2.81
380.33,2.76
384.13,2.71
387.97,2.66
391.85,2.61
395.77,2.56
399.73,2.51
403.72,2.46
407.76,2.41
411.84,2.36
415.96,2.31
420.12,2.26
424.32,2.22
428.56,2.17
432.85,2.12
437.18,2.07
441.55,2.02
445.96,1.98
450.42,1.93
454.93,1.88
459.48,1.84
464.07,1.79
468.71,1.74
473.40,1.69
478.13,1.64
482.91,1.59
487.74,1.54
492.62,1.49
497.55,1.44
502.52,1.39
507.55,1.34
512.62,1.29
517.75,1.24
522.93,1.19
528.16,1.14
533.44,1.09
538.77,1.04
544.16,1.00
549.60,0.95
555.10,0.90
560.65,0.85
566.25,0.81
571.92,0.76
577.64,0.71
583.41,0.67
589.25,0.62
595.14,0.58
601.09,0.54
607.10,0.49
613.17,0.45
619.30,0.41
625.50,0.37
631.75,0.32
638.07,0.28
644.45,0.24
650.89,0.21
657.40,0.17
663.98,0.13
670.62,0.09
677.32,0.06
684.10,0.03
690.94,-0.01
697.85,-0.04
704.83,-0.07
711.87,-0.10
718.99,-0.13
726.18,-0.16
733.44,-0.18
740.78,-0.20
748.19,-0.23
755.67,-0.25
763.23,-0.27
770.86,-0.29
778.57,-0.30
786.35,-0.32
794.22,-0.33
802.16,-0.34
810.18,-0.35
818.28,-0.35
826.46,-0.36
834.73,-0.36
843.08,-0.36
851.51,-0.36
860.02,-0.35
868.62,-0.35
877.31,-0.34
886.08,-0.33
894.94,-0.31
903.89,-0.30
912.93,-0.28
922.06,-0.26
931.28,-0.23
940.59,-0.21
950.00,-0.18
959.50,-0.15
969.09,-0.12
978.78,-0.08
988.57,-0.04
998.46,-0.01
1008.44,0.03
1018.53,0.08
1028.71,0.12
1039.00,0.16
1049.39,0.21
1059.88,0.26
1070.48,0.31
1081.19,0.36
1092.00,0.40
1102.92,0.46
1113.95,0.51
1125.09,0.56
1136.34,0.62
1147.70,0.67
1159.18,0.72
1170.77,0.78
1182.48,0.84
1194.30,0.89
1206.25,0.95
1218.31,1.00
1230.49,1.06
1242.80,1.12
1255.22,1.18
1267.78,1.23
1280.45,1.29
1293.26,1.35
1306.19,1.41
1319.25,1.47
1332.45,1.53
1345.77,1.59
1359.23,1.65
1372.82,1.72
1386.55,1.78
1400.41,1.84
1414.42,1.91
1428.56,1.98
1442.85,2.04
1457.28,2.11
1471.85,2.19
1486.57,2.26
1501.43,2.33
1516.45,2.40
1531.61,2.48
1546.93,2.56
1562.40,2.64
1578.02,2.72
1593.80,2.80
1609.74,2.88
1625.84,2.97
1642.10,3.05
1658.52,3.14
1675.10,3.23
1691.85,3.32
1708.77,3.42
1725.86,3.51
1743.12,3.61
1760.55,3.71
1778.15,3.82
1795.94,3.92
1813.90,4.03
1832.03,4.14
1850.36,4.25
1868.86,4.36
1887.55,4.48
1906.42,4.59
1925.49,4.72
1944.74,4.84
1964.19,4.97
1983.83,5.10
2003.67,5.24
2023.71,5.39
2043.94,5.55
2064.38,5.70
2085.03,5.87
2105.88,6.03
2126.94,6.19
2148.20,6.34
2169.69,6.50
2191.38,6.64
2213.30,6.79
2235.43,6.93
2257.78,7.06
2280.36,7.19
2303.17,7.32
2326.20,7.44
2349.46,7.56
2372.95,7.67
2396.68,7.78
2420.65,7.89
2444.86,7.99
2469.31,8.08
2494.00,8.18
2518.94,8.26
2544.13,8.34
2569.57,8.41
2595.27,8.47
2621.22,8.52
2647.43,8.57
2673.90,8.60
2700.64,8.62
2727.65,8.64
2754.93,8.63
2782.48,8.63
2810.30,8.61
2838.40,8.58
2866.79,8.55
2895.46,8.52
2924.41,8.47
2953.65,8.41
2983.19,8.35
3013.02,8.28
3043.15,8.20
3073.58,8.11
3104.32,8.02
3135.36,7.93
3166.72,7.84
3198.38,7.77
3230.37,7.69
3262.67,7.64
3295.30,7.62
3328.25,7.59
3361.53,7.59
3395.15,7.61
3429.10,7.64
3463.39,7.68
3498.03,7.75
3533.01,7.81
3568.34,7.89
3604.02,7.98
3640.06,8.07
3676.46,8.18
3713.22,8.30
3750.36,8.42
3787.86,8.53
3825.74,8.65
3864.00,8.76
3902.64,8.83
3941.66,8.88
3981.08,8.94
4020.89,8.94
4061.10,8.88
4101.71,8.82
4142.73,8.71
4184.15,8.55
4226.00,8.39
4268.26,8.20
4310.94,7.99
4354.05,7.77
4397.59,7.56
4441.56,7.36
4485.98,7.15
4530.84,6.99
4576.15,6.85
4621.91,6.72
4668.13,6.67
4714.81,6.63
4761.96,6.61
4809.58,6.67
4857.67,6.74
4906.25,6.88
4955.31,7.05
5004.87,7.22
5054.91,7.48
5105.46,7.74
5156.52,8.00
5208.08,8.29
5260.16,8.59
5312.77,8.87
5365.89,9.11
5419.55,9.36
5473.75,9.54
5528.49,9.66
5583.77,9.78
5639.61,9.79
5696.00,9.75
5752.96,9.72
5810.49,9.66
5868.60,9.49
5927.28,9.33
5986.56,9.16
6046.42,9.00
6106.89,8.83
6167.96,8.60
6229.64,8.22
6291.93,7.84
6354.85,7.17
6418.40,6.46
6482.58,5.75
6547.41,5.43
6612.88,5.24
6679.01,5.06
6745.80,5.14
6813.26,5.35
6881.39,5.56
6950.21,5.82
7019.71,6.11
7089.91,6.39
7160.81,6.73
7232.41,7.07
7304.74,7.42
7377.79,7.83
7451.56,8.24
7526.08,8.64
7601.34,9.04
7677.35,9.44
7754.13,9.83
7831.67,10.10
7909.98,10.36
7989.08,10.62
8068.98,10.67
8149.67,10.68
8231.16,10.69
8313.47,10.48
8396.61,10.21
8480.57,9.94
8565.38,9.49
8651.03,8.98
8737.54,8.47
8824.92,7.86
8913.17,7.24
9002.30,6.61
9092.32,6.01
9183.25,5.41
9275.08,4.83
9367.83,4.28
9461.51,3.73
9556.12,3.23
9651.68,2.75
9748.20,2.28
9845.68,1.90
9944.14,1.52
10043.58,1.19
10144.02,0.91
10245.46,0.64
10347.91,0.38
10451.39,0.15
10555.91,-0.09
10661.46,-0.34
10768.08,-0.60
10875.76,-0.87
10984.52,-1.16
11094.36,-1.47
11205.31,-1.77
11317.36,-2.03
11430.53,-2.29
11544.84,-2.53
11660.29,-2.71
11776.89,-2.89
11894.66,-3.04
12013.60,-3.17
12133.74,-3.31
12255.08,-3.43
12377.63,-3.55
12501.41,-3.66
12626.42,-3.73
12752.68,-3.80
12880.21,-3.81
13009.01,-3.79
13139.10,-3.76
13270.49,-3.65
13403.20,-3.47
13537.23,-3.28
13672.60,-2.99
13809.33,-2.60
13947.42,-2.22
14086.90,-1.72
14227.77,-1.17
14370.04,-0.61
14513.74,-0.07
14658.88,0.37
14805.47,0.80
14953.52,1.24
15103.06,1.35
15254.09,1.32
15406.63,1.29
15560.70,1.15
15716.30,0.84
15873.47,0.54
16032.20,0.20
16192.52,-0.27
16354.45,-0.74
16517.99,-1.25
16683.17,-2.00
16850.01,-2.76
17018.51,-3.56
17188.69,-4.71
17360.58,-5.85
17534.18,-7.12
17709.53,-8.84
17886.62,-10.56
18065.49,-11.89
18246.14,-12.52
18428.60,-13.14
18612.89,-13.30
18799.02,-13.15
18987.01,-13.01
19176.88,-13.43
19368.65,-13.89
19562.33,-14.47
19757.96,-15.32
19955.54,-16.17
