frequency,raw
20.00,6.78
20.20,6.82
20.40,6.86
20.61,6.90
20.81,6.94
21.02,6.98
21.23,7.02
21.44,7.07
21.66,7.11
21.87,7.15
22.09,7.19
22.31,7.23
22.54,7.27
22.76,7.31
22.99,7.35
23.22,7.40
23.45,7.44
23.69,7.47
23.92,7.51
24.16,7.54
24.40,7.58
24.65,7.61
24.89,7.64
25.14,7.67
25.39,7.70
25.65,7.73
25.91,7.76
26.16,7.79
26.43,7.82
26.69,7.85
26.96,7.87
27.23,7.90
27.50,7.93
27.77,7.95
28.05,7.98
28.33,8.00
28.62,8.03
28.90,8.06
29.19,8.08
29.48,8.10
29.78,8.12
30.08,8.14
30.38,8.15
30.68,8.17
30.99,8.19
31.30,8.20
31.61,8.22
31.93,8.24
32.24,8.25
32.57,8.27
32.89,8.28
33.22,8.29
33.55,8.30
33.89,8.31
34.23,8.33
34.57,8.34
34.92,8.34
35.27,8.35
35.62,8.36
35.97,8.37
36.33,8.38
36.70,8.39
37.06,8.40
37.43,8.41
37.81,8.41
38.19,8.41
38.57,8.42
38.95,8.42
39.34,8.42
39.74,8.43
40.14,8.43
40.54,8.43
40.94,8.43
41.35,8.43
41.76,8.43
42.18,8.43
42.60,8.43
43.03,8.42
43.46,8.42
43.90,8.41
44.33,8.41
44.78,8.40
45.23,8.40
45.68,8.39
46.13,8.38
46.60,8.38
47.06,8.37
47.53,8.36
48.01,8.35
48.49,8.34
48.97,8.33
49.46,8.32
49.96,8.31
50.46,8.30
50.96,8.29
51.47,8.27
51.99,8.26
52.51,8.25
53.03,8.23
53.56,8.22
54.10,8.20
54.64,8.18
55.18,8.16
55.74,8.15
56.29,8.13
56.86,8.11
57.42,8.09
58.00,8.07
58.58,8.05
59.16,8.03
59.76,8.01
60.35,7.99
60.96,7.96
61.57,7.94
62.18,7.92
62.80,7.89
63.43,7.87
64.07,7.84
64.71,7.81
65.35,7.79
66.01,7.76
66.67,7.74
67.33,7.71
68.01,7.68
68.69,7.66
69.37,7.63
70.07,7.60
70.77,7.57
71.48,7.54
72.19,7.51
72.91,7.48
73.64,7.45
74.38,7.41
75.12,7.38
75.87,7.35
76.63,7.32
77.40,7.28
78.17,7.25
78.95,7.21
79.74,7.18
80.54,7.14
81.35,7.11
82.16,7.07
82.98,7.03
83.81,6.99
84.65,6.96
85.50,6.92
86.35,6.88
87.22,6.84
88.09,6.81
88.97,6.77
89.86,6.73
90.76,6.69
91.66,6.65
92.58,6.61
93.51,6.57
94.44,6.52
95.39,6.48
96.34,6.44
97.30,6.40
98.28,6.36
99.26,6.31
100.25,6.27
101.25,6.23
102.27,6.18
103.29,6.14
104.32,6.09
105.37,6.05
106.42,6.00
107.48,5.96
108.56,5.91
109.64,5.87
110.74,5.82
111.85,5.77
112.97,5.73
114.10,5.68
115.24,5.63
116.39,5.59
117.55,5.54
118.73,5.49
119.92,5.44
121.12,5.40
122.33,5.35
123.55,5.30
124.79,5.25
126.03,5.20
127.29,5.15
128.57,5.10
129.85,5.05
131.15,5.00
132.46,4.95
133.79,4.90
135.12,4.85
136.48,4.80
137.84,4.75
139.22,4.70
140.61,4.65
142.02,4.60
143.44,4.55
144.87,4.50
146.32,4.45
147.78,4.40
149.26,4.34
150.75,4.29
152.26,4.24
153.78,4.19
155.32,4.14
156.88,4.09
158.44,4.04
160.03,3.98
161.63,3.93
163.24,3.88
164.88,3.83
166.53,3.78
168.19,3.73
169.87,3.67
171.57,3.62
173.29,3.57
175.02,3.52
176.77,3.46
178.54,3.41
180.32,3.36
182.13,3.31
183.95,3.25
185.79,3.20
187.65,3.15
189.52,3.10
191.42,3.04
193.33,2.99
195.27,2.94
197.22,2.89
199.19,2.84
201.18,2.79
203.19,2.73
205.23,2.68
207.28,2.63
209.35,2.58
211.44,2.53
213.56,2.47
215.69,2.42
217.85,2.37
220.03,2.31
222.23,2.26
224.45,2.21
226.70,2.16
228.96,2.11
231.25,2.06
233.57,2.02
235.90,1.97
238.26,1.93
240.64,1.89
243.05,1.85
245.48,1.82
247.93,1.78
250.41,1.75
252.92,1.71
255.45,1.68
258.00,1.64
260.58,1.60
263.19,1.56
265.82,1.52
268.48,1.48
271.16,1.43
273.87,1.39
276.61,1.34
279.38,1.30
282.17,1.25
284.99,1.21
287.84,1.16
290.72,1.12
293.63,1.07
296.57,1.03
299.53,0.98
302.53,0.94
305.55,0.90
308.61,0.85
311.69,0.81
314.81,0.77
317.96,0.73
321.14,0.69
324.35,0.64
327.59,0.60
330.87,0.56
334.18,0.52
337.52,0.48
340.90,0.44
344.30,0.40
347.75,0.37
351.23,0.33
354.74,0.29
358.28,0.25
361.87,0.22
365.49,0.18
369.14,0.14
372.83,0.11
376.56,0.07
380.33,0.04
384.13,0.00
387.97,-0.03
391.85,-0.06
395.77,-0.10
399.73,-0.13
403.72,-0.16
407.76,-0.19
411.84,-0.22
415.96,-0.26
420.12,-0.29
424.32,-0.32
428.56,-0.35
432.85,-0.38
437.18,-0.41
441.55,-0.44
445.96,-0.46
450.42,-0.49
454.93,-0.52
459.48,-0.54
464.07,-0.57
468.71,-0.59
473.40,-0.61
478.13,-0.63
482.91,-0.66
487.74,-0.68
492.62,-0.70
497.55,-0.72
502.52,-0.75
507.55,-0.77
512.62,-0.79
517.75,-0.81
522.93,-0.83
528.16,-0.85
533.44,-0.87
538.77,-0.88
544.16,-0.90
549.60,-0.92
555.10,-0.93
560.65,-0.95
566.25,-0.97
571.92,-0.98
577.64,-1.00
583.41,-1.01
589.25,-1.02
595.14,-1.04
601.09,-1.05
607.10,-1.06
613.17,-1.07
619.30,-1.08
625.50,-1.09
631.75,-1.10
638.07,-1.11
644.45,-1.11
650.89,-1.12
657.40,-1.12
663.98,-1.13
670.62,-1.13
677.32,-1.14
684.10,-1.14
690.94,-1.14
697.85,-1.14
704.83,-1.14
711.87,-1.13
718.99,-1.13
726.18,-1.12
733.44,-1.12
740.78,-1.11
748.19,-1.10
755.67,-1.09
763.23,-1.08
770.86,-1.07
778.57,-1.05
786.35,-1.03
794.22,-1.02
802.16,-1.00
810.18,-0.97
818.28,-0.95
826.46,-0.92
834.73,-0.90
843.08,-0.87
851.51,-0.84
860.02,-0.80
868.62,-0.76
877.31,-0.73
886.08,-0.68
894.94,-0.64
903.89,-0.60
912.93,-0.55
922.06,-0.50
931.28,-0.44
940.59,-0.39
950.00,-0.33
959.50,-0.27
969.09,-0.21
978.78,-0.14
988.57,-0.08
998.46,-0.01
1008.44,0.06
1018.53,0.13
1028.71,0.19
1039.00,0.26
1049.39,0.34
1059.88,0.41
1070.48,0.48
1081.19,0.55
1092.00,0.62
1102.92,0.70
1113.95,0.77
1125.09,0.84
1136.34,0.92
1147.70,0.99
1159.18,1.06
1170.77,1.14
1182.48,1.21
1194.30,1.28
1206.25,1.36
1218.31,1.43
1230.49,1.50
1242.80,1.57
1255.22,1.64
1267.78,1.72
1280.45,1.79
1293.26,1.86
1306.19,1.93
1319.25,2.00
1332.45,2.07
1345.77,2.14
1359.23,2.21
1372.82,2.28
1386.55,2.35
1400.41,2.42
1414.42,2.49
1428.56,2.57
1442.85,2.64
1457.28,2.71
1471.85,2.78
1486.57,2.85
1501.43,2.93
1516.45,3.00
1531.61,3.07
1546.93,3.15
1562.40,3.22
1578.02,3.29
1593.80,3.37
1609.74,3.44
1625.84,3.52
1642.10,3.59
1658.52,3.66
1675.10,3.73
1691.85,3.80
1708.77,3.87
1725.86,3.94
1743.12,4.01
1760.55,4.07
1778.15,4.13
1795.94,4.20
1813.90,4.26
1832.03,4.31
1850.36,4.37
1868.86,4.43
1887.55,4.49
1906.42,4.55
1925.49,4.61
1944.74,4.67
1964.19,4.74
1983.83,4.81
2003.67,4.89
2023.71,4.99
2043.94,5.09
2064.38,5.19
2085.03,5.31
2105.88,5.43
2126.94,5.56
2148.20,5.70
2169.69,5.84
2191.38,5.98
2213.30,6.13
2235.43,6.28
2257.78,6.42
2280.36,6.56
2303.17,6.69
2326.20,6.81
2349.46,6.93
2372.95,7.05
2396.68,7.15
2420.65,7.26
2444.86,7.35
2469.31,7.44
2494.00,7.52
2518.94,7.59
2544.13,7.64
2569.57,7.69
2595.27,7.73
2621.22,7.75
2647.43,7.77
2673.90,7.74
2700.64,7.71
2727.65,7.65
2754.93,7.52
2782.48,7.39
2810.30,7.25
2838.40,7.07
2866.79,6.90
2895.46,6.72
2924.41,6.59
2953.65,6.48
2983.19,6.36
3013.02,6.26
3043.15,6.18
3073.58,6.11
3104.32,6.04
3135.36,5.98
3166.72,5.93
3198.38,5.90
3230.37,5.87
3262.67,5.85
3295.30,5.83
3328.25,5.81
3361.53,5.78
3395.15,5.73
3429.10,5.69
3463.39,5.64
3498.03,5.59
3533.01,5.54
3568.34,5.51
3604.02,5.48
3640.06,5.46
3676.46,5.45
3713.22,5.44
3750.36,5.44
3787.86,5.45
3825.74,5.47
3864.00,5.48
3902.64,5.50
3941.66,5.53
3981.08,5.56
4020.89,5.59
4061.10,5.62
4101.71,5.65
4142.73,5.68
4184.15,5.71
4226.00,5.74
4268.26,5.76
4310.94,5.79
4354.05,5.81
4397.59,5.83
4441.56,5.86
4485.98,5.88
4530.84,5.91
4576.15,5.93
4621.91,5.96
4668.13,5.96
4714.81,5.95
4761.96,5.95
4809.58,5.93
4857.67,5.91
4906.25,5.87
4955.31,5.83
5004.87,5.79
5054.91,5.69
5105.46,5.60
5156.52,5.50
5208.08,5.35
5260.16,5.20
5312.77,5.03
5365.89,4.81
5419.55,4.58
5473.75,4.33
5528.49,4.06
5583.77,3.78
5639.61,3.61
5696.00,3.48
5752.96,3.35
5810.49,3.23
5868.60,3.17
5927.28,3.11
5986.56,3.05
6046.42,2.95
6106.89,2.84
6167.96,2.73
6229.64,2.61
6291.93,2.48
6354.85,2.38
6418.40,2.27
6482.58,2.17
6547.41,2.09
6612.88,2.02
6679.01,1.95
6745.80,1.94
6813.26,1.95
6881.39,1.95
6950.21,2.02
7019.71,2.11
7089.91,2.20
7160.81,2.39
7232.41,2.59
7304.74,2.79
7377.79,3.05
7451.56,3.30
7526.08,3.52
7601.34,3.67
7677.35,3.82
7754.13,3.97
7831.67,3.88
7909.98,3.80
7989.08,3.72
8068.98,3.38
8149.67,3.00
8231.16,2.62
8313.47,2.24
8396.61,1.87
8480.57,1.49
8565.38,1.46
8651.03,1.53
8737.54,1.59
8824.92,1.72
8913.17,1.85
9002.30,1.98
9092.32,1.77
9183.25,1.56
9275.08,1.27
9367.83,0.77
9461.51,0.27
9556.12,-0.32
9651.68,-0.96
9748.20,-1.59
9845.68,-2.16
9944.14,-2.72
10043.58,-3.15
10144.02,-3.42
10245.46,-3.69
10347.91,-3.97
10451.39,-4.25
10555.91,-4.53
10661.46,-4.84
10768.08,-5.15
10875.76,-5.47
10984.52,-5.64
11094.36,-5.77
11205.31,-5.90
11317.36,-5.86
11430.53,-5.82
11544.84,-5.74
11660.29,-5.58
11776.89,-5.43
11894.66,-5.29
12013.60,-5.16
12133.74,-5.02
12255.08,-4.91
12377.63,-4.82
12501.41,-4.73
12626.42,-4.47
12752.68,-4.20
12880.21,-3.85
13009.01,-3.44
13139.10,-3.04
13270.49,-2.64
13403.20,-2.25
13537.23,-1.87
13672.60,-1.45
13809.33,-1.02
13947.42,-0.58
14086.90,-0.00
14227.77,0.66
14370.04,1.32
14513.74,2.00
14658.88,2.92
14805.47,3.84
14953.52,4.75
15103.06,5.64
15254.09,6.51
15406.63,7.39
15560.70,8.03
15716.30,8.32
15873.47,8.61
16032.20,8.73
16192.52,8.21
16354.45,7.69
16517.99,7.14
16683.17,6.31
16850.01,5.48
17018.51,4.68
17188.69,4.10
17360.58,3.52
17534.18,3.05
17709.53,2.99
17886.62,2.92
18065.49,2.90
18246.14,2.94
18428.60,2.98
18612.89,2.83
18799.02,2.56
18987.01,2.30
19176.88,1.74
19368.65,1.16
19562.33,0.60
19757.96,0.09
19955.54,-0.42
