frequency,raw
20.00,3.14
20.20,3.18
20.40,3.23
20.61,3.27
20.81,3.32
21.02,3.36
21.23,3.40
21.44,3.44
21.66,3.48
21.87,3.52
22.09,3.55
22.31,3.59
22.54,3.62
22.76,3.65
22.99,3.69
23.22,3.72
23.45,3.76
23.69,3.79
23.92,3.82
24.16,3.85
24.40,3.88
24.65,3.91
24.89,3.94
25.14,3.97
25.39,4.00
25.65,4.02
25.91,4.05
26.16,4.08
26.43,4.10
26.69,4.13
26.96,4.15
27.23,4.17
27.50,4.19
27.77,4.21
28.05,4.23
28.33,4.25
28.62,4.27
28.90,4.29
29.19,4.30
29.48,4.32
29.78,4.34
30.08,4.35
30.38,4.37
30.68,4.38
30.99,4.39
31.30,4.40
31.61,4.41
31.93,4.42
32.24,4.43
32.57,4.44
32.89,4.45
33.22,4.46
33.55,4.47
33.89,4.47
34.23,4.48
34.57,4.48
34.92,4.49
35.27,4.49
35.62,4.50
35.97,4.50
36.33,4.50
36.70,4.50
37.06,4.50
37.43,4.50
37.81,4.49
38.19,4.49
38.57,4.49
38.95,4.49
39.34,4.48
39.74,4.48
40.14,4.47
40.54,4.47
40.94,4.46
41.35,4.45
41.76,4.44
42.18,4.43
42.60,4.42
43.03,4.42
43.46,4.41
43.90,4.40
44.33,4.38
44.78,4.37
45.23,4.35
45.68,4.34
46.13,4.33
46.60,4.31
47.06,4.30
47.53,4.28
48.01,4.26
48.49,4.24
48.97,4.22
49.46,4.21
49.96,4.19
50.46,4.17
50.96,4.15
51.47,4.12
51.99,4.10
52.51,4.08
53.03,4.05
53.56,4.03
54.10,4.01
54.64,3.98
55.18,3.96
55.74,3.93
56.29,3.90
56.86,3.87
57.42,3.85
58.00,3.82
58.58,3.79
59.16,3.76
59.76,3.73
60.35,3.70
60.96,3.67
61.57,3.64
62.18,3.60
62.80,3.57
63.43,3.54
64.07,3.50
64.71,3.47
65.35,3.44
66.01,3.40
66.67,3.36
67.33,3.33
68.01,3.29
68.69,3.25
69.37,3.21
70.07,3.18
70.77,3.14
71.48,3.10
72.19,3.06
72.91,3.03
73.64,2.99
74.38,2.94
75.12,2.90
75.87,2.86
76.63,2.82
77.40,2.78
78.17,2.74
78.95,2.69
79.74,2.65
80.54,2.61
81.35,2.56
82.16,2.52
82.98,2.47
83.81,2.43
84.65,2.38
85.50,2.34
86.35,2.29
87.22,2.24
88.09,2.19
88.97,2.15
89.86,2.10
90.76,2.05
91.66,2.00
92.58,1.95
93.51,1.91
94.44,1.86
95.39,1.81
96.34,1.76
97.30,1.71
98.28,1.66
99.26,1.61
100.25,1.56
101.25,1.51
102.27,1.46
103.29,1.41
104.32,1.36
105.37,1.31
106.42,1.26
107.48,1.21
108.56,1.15
109.64,1.10
110.74,1.05
111.85,0.99
112.97,0.94
114.10,0.89
115.24,0.83
116.39,0.78
117.55,0.73
118.73,0.67
119.92,0.62
121.12,0.57
122.33,0.51
123.55,0.46
124.79,0.41
126.03,0.35
127.29,0.30
128.57,0.24
129.85,0.19
131.15,0.14
132.46,0.08
133.79,0.03
135.12,-0.02
136.48,-0.08
137.84,-0.13
139.22,-0.18
140.61,-0.24
142.02,-0.29
143.44,-0.35
144.87,-0.40
146.32,-0.46
147.78,-0.51
149.26,-0.57
150.75,-0.62
152.26,-0.67
153.78,-0.72
155.32,-0.78
156.88,-0.83
158.44,-0.88
160.03,-0.93
161.63,-0.98
163.24,-1.04
164.88,-1.09
166.53,-1.14
168.19,-1.20
169.87,-1.25
171.57,-1.31
173.29,-1.36
175.02,-1.41
176.77,-1.46
178.54,-1.51
180.32,-1.56
182.13,-1.61
183.95,-1.66
185.79,-1.70
187.65,-1.73
189.52,-1.77
191.42,-1.81
193.33,-1.84
195.27,-1.87
197.22,-1.91
199.19,-1.95
201.18,-2.00
203.19,-2.04
205.23,-2.09
207.28,-2.14
209.35,-2.19
211.44,-2.24
213.56,-2.29
215.69,-2.33
217.85,-2.38
220.03,-2.42
222.23,-2.47
224.45,-2.51
226.70,-2.55
228.96,-2.59
231.25,-2.62
233.57,-2.66
235.90,-2.70
238.26,-2.74
240.64,-2.78
243.05,-2.81
245.48,-2.85
247.93,-2.89
250.41,-2.93
252.92,-2.97
255.45,-3.01
258.00,-3.05
260.58,-3.09
263.19,-3.13
265.82,-3.17
268.48,-3.20
271.16,-3.24
273.87,-3.28
276.61,-3.31
279.38,-3.35
282.17,-3.38
284.99,-3.42
287.84,-3.45
290.72,-3.48
293.63,-3.52
296.57,-3.55
299.53,-3.58
302.53,-3.61
305.55,-3.64
308.61,-3.67
311.69,-3.70
314.81,-3.73
317.96,-3.75
321.14,-3.78
324.35,-3.81
327.59,-3.83
330.87,-3.86
334.18,-3.89
337.52,-3.91
340.90,-3.93
344.30,-3.96
347.75,-3.98
351.23,-4.00
354.74,-4.02
358.28,-4.04
361.87,-4.06
365.49,-4.07
369.14,-4.09
372.83,-4.11
376.56,-4.12
380.33,-4.13
384.13,-4.15
387.97,-4.16
391.85,-4.16
395.77,-4.17
399.73,-4.18
403.72,-4.18
407.76,-4.19
411.84,-4.19
415.96,-4.19
420.12,-4.18
424.32,-4.18
428.56,-4.18
432.85,-4.17
437.18,-4.16
441.55,-4.15
445.96,-4.14
450.42,-4.12
454.93,-4.11
459.48,-4.09
464.07,-4.08
468.71,-4.06
473.40,-4.04
478.13,-4.02
482.91,-4.00
487.74,-3.98
492.62,-3.95
497.55,-3.93
502.52,-3.91
507.55,-3.88
512.62,-3.86
517.75,-3.83
522.93,-3.81
528.16,-3.79
533.44,-3.76
538.77,-3.74
544.16,-3.71
549.60,-3.68
555.10,-3.66
560.65,-3.63
566.25,-3.61
571.92,-3.58
577.64,-3.55
583.41,-3.52
589.25,-3.49
595.14,-3.45
601.09,-3.42
607.10,-3.38
613.17,-3.35
619.30,-3.32
625.50,-3.29
631.75,-3.25
638.07,-3.22
644.45,-3.18
650.89,-3.14
657.40,-3.10
663.98,-3.05
670.62,-3.00
677.32,-2.96
684.10,-2.91
690.94,-2.86
697.85,-2.82
704.83,-2.77
711.87,-2.72
718.99,-2.67
726.18,-2.62
733.44,-2.57
740.78,-2.52
748.19,-2.47
755.67,-2.41
763.23,-2.35
770.86,-2.29
778.57,-2.23
786.35,-2.17
794.22,-2.10
802.16,-2.04
810.18,-1.96
818.28,-1.89
826.46,-1.82
834.73,-1.74
843.08,-1.67
851.51,-1.59
860.02,-1.50
868.62,-1.42
877.31,-1.33
886.08,-1.24
894.94,-1.15
903.89,-1.06
912.93,-0.96
922.06,-0.86
931.28,-0.76
940.59,-0.66
950.00,-0.56
959.50,-0.45
969.09,-0.35
978.78,-0.24
988.57,-0.13
998.46,-0.02
1008.44,0.10
1018.53,0.21
1028.71,0.32
1039.00,0.44
1049.39,0.56
1059.88,0.67
1070.48,0.79
1081.19,0.90
1092.00,1.02
1102.92,1.14
1113.95,1.25
1125.09,1.36
1136.34,1.48
1147.70,1.59
1159.18,1.70
1170.77,1.81
1182.48,1.92
1194.30,2.02
1206.25,2.13
1218.31,2.23
1230.49,2.33
1242.80,2.43
1255.22,2.52
1267.78,2.61
1280.45,2.71
1293.26,2.80
1306.19,2.88
1319.25,2.97
1332.45,3.05
1345.77,3.14
1359.23,3.22
1372.82,3.30
1386.55,3.37
1400.41,3.45
1414.42,3.53
1428.56,3.60
1442.85,3.67
1457.28,3.75
1471.85,3.82
1486.57,3.89
1501.43,3.96
1516.45,4.02
1531.61,4.09
1546.93,4.16
1562.40,4.23
1578.02,4.29
1593.80,4.36
1609.74,4.42
1625.84,4.49
1642.10,4.55
1658.52,4.62
1675.10,4.68
1691.85,4.74
1708.77,4.81
1725.86,4.87
1743.12,4.93
1760.55,4.99
1778.15,5.05
1795.94,5.11
1813.90,5.17
1832.03,5.23
1850.36,5.29
1868.86,5.34
1887.55,5.40
1906.42,5.46
1925.49,5.51
1944.74,5.56
1964.19,5.61
1983.83,5.66
2003.67,5.70
2023.71,5.74
2043.94,5.79
2064.38,5.83
2085.03,5.86
2105.88,5.89
2126.94,5.92
2148.20,5.94
2169.69,5.96
2191.38,5.98
2213.30,5.98
2235.43,5.99
2257.78,5.99
2280.36,5.98
2303.17,5.98
2326.20,5.96
2349.46,5.94
2372.95,5.91
2396.68,5.87
2420.65,5.84
2444.86,5.79
2469.31,5.74
2494.00,5.69
2518.94,5.62
2544.13,5.55
2569.57,5.49
2595.27,5.41
2621.22,5.33
2647.43,5.25
2673.90,5.17
2700.64,5.08
2727.65,5.00
2754.93,4.91
2782.48,4.82
2810.30,4.74
2838.40,4.66
2866.79,4.58
2895.46,4.51
2924.41,4.45
2953.65,4.39
2983.19,4.33
3013.02,4.28
3043.15,4.25
3073.58,4.22
3104.32,4.20
3135.36,4.19
3166.72,4.19
3198.38,4.19
3230.37,4.20
3262.67,4.21
3295.30,4.23
3328.25,4.25
3361.53,4.27
3395.15,4.29
3429.10,4.32
3463.39,4.35
3498.03,4.39
3533.01,4.43
3568.34,4.48
3604.02,4.53
3640.06,4.58
3676.46,4.64
3713.22,4.71
3750.36,4.78
3787.86,4.86
3825.74,4.94
3864.00,5.02
3902.64,5.12
3941.66,5.22
3981.08,5.32
4020.89,5.43
4061.10,5.54
4101.71,5.65
4142.73,5.76
4184.15,5.86
4226.00,5.97
4268.26,6.05
4310.94,6.11
4354.05,6.17
4397.59,6.17
4441.56,6.14
4485.98,6.11
4530.84,5.99
4576.15,5.84
4621.91,5.68
4668.13,5.41
4714.81,5.13
4761.96,4.82
4809.58,4.44
4857.67,4.06
4906.25,3.63
4955.31,3.18
5004.87,2.73
5054.91,2.26
5105.46,1.78
5156.52,1.31
5208.08,0.86
5260.16,0.40
5312.77,-0.03
5365.89,-0.42
5419.55,-0.80
5473.75,-1.13
5528.49,-1.39
5583.77,-1.66
5639.61,-1.80
5696.00,-1.89
5752.96,-1.98
5810.49,-2.04
5868.60,-1.96
5927.28,-1.88
5986.56,-1.80
6046.42,-1.70
6106.89,-1.58
6167.96,-1.48
6229.64,-1.42
6291.93,-1.35
6354.85,-1.35
6418.40,-1.36
6482.58,-1.37
6547.41,-1.41
6612.88,-1.47
6679.01,-1.52
6745.80,-1.57
6813.26,-1.61
6881.39,-1.66
6950.21,-1.63
7019.71,-1.59
7089.91,-1.54
7160.81,-1.36
7232.41,-1.16
7304.74,-0.94
7377.79,-0.56
7451.56,-0.17
7526.08,0.27
7601.34,0.81
7677.35,1.35
7754.13,1.88
7831.67,2.35
7909.98,2.81
7989.08,3.27
8068.98,3.37
8149.67,3.40
8231.16,3.44
8313.47,3.08
8396.61,2.61
8480.57,2.14
8565.38,1.48
8651.03,0.78
8737.54,0.07
8824.92,-0.59
8913.17,-1.23
9002.30,-1.87
9092.32,-2.31
9183.25,-2.75
9275.08,-3.12
9367.83,-3.31
9461.51,-3.51
9556.12,-3.56
9651.68,-3.50
9748.20,-3.45
9845.68,-3.20
9944.14,-2.95
10043.58,-2.71
10144.02,-2.47
10245.46,-2.24
10347.91,-2.20
10451.39,-2.39
10555.91,-2.58
10661.46,-3.11
10768.08,-3.89
10875.76,-4.67
10984.52,-5.65
11094.36,-6.70
11205.31,-7.72
11317.36,-8.48
11430.53,-9.25
11544.84,-9.78
11660.29,-9.96
11776.89,-10.15
11894.66,-10.03
12013.60,-9.84
12133.74,-9.65
12255.08,-9.50
12377.63,-9.38
12501.41,-9.27
12626.42,-9.37
12752.68,-9.46
12880.21,-9.66
13009.01,-9.91
13139.10,-10.16
13270.49,-10.40
13403.20,-10.61
13537.23,-10.82
13672.60,-10.88
13809.33,-10.81
13947.42,-10.73
14086.90,-10.30
14227.77,-9.67
14370.04,-9.03
14513.74,-8.35
14658.88,-7.29
14805.47,-6.22
14953.52,-5.16
15103.06,-4.33
15254.09,-3.61
15406.63,-2.89
15560.70,-2.53
15716.30,-2.71
15873.47,-2.89
16032.20,-3.22
16192.52,-4.15
16354.45,-5.08
16517.99,-5.99
16683.17,-6.82
16850.01,-7.64
17018.51,-8.41
17188.69,-8.72
17360.58,-9.04
17534.18,-9.35
17709.53,-9.67
17886.62,-9.98
18065.49,-10.34
18246.14,-10.79
18428.60,-11.24
18612.89,-11.48
18799.02,-11.58
18987.01,-11.68
19176.88,-11.76
19368.65,-11.83
19562.33,-11.95
19757.96,-12.16
19955.54,-12.37
