frequency,raw
20.00,9.84
20.20,9.88
20.40,9.91
20.61,9.94
20.81,9.98
21.02,10.01
21.23,10.05
21.44,10.09
21.66,10.12
21.87,10.16
22.09,10.19
22.31,10.22
22.54,10.25
22.76,10.28
22.99,10.31
23.22,10.34
23.45,10.37
23.69,10.40
23.92,10.43
24.16,10.46
24.40,10.49
24.65,10.52
24.89,10.55
25.14,10.57
25.39,10.60
25.65,10.62
25.91,10.64
26.16,10.67
26.43,10.69
26.69,10.71
26.96,10.74
27.23,10.76
27.50,10.78
27.77,10.80
28.05,10.82
28.33,10.83
28.62,10.85
28.90,10.87
29.19,10.89
29.48,10.91
29.78,10.93
30.08,10.94
30.38,10.96
30.68,10.98
30.99,10.99
31.30,11.00
31.61,11.02
31.93,11.03
32.24,11.04
32.57,11.05
32.89,11.07
33.22,11.08
33.55,11.09
33.89,11.10
34.23,11.11
34.57,11.11
34.92,11.12
35.27,11.13
35.62,11.14
35.97,11.14
36.33,11.15
36.70,11.16
37.06,11.16
37.43,11.17
37.81,11.17
38.19,11.17
38.57,11.18
38.95,11.18
39.34,11.18
39.74,11.18
40.14,11.18
40.54,11.18
40.94,11.18
41.35,11.18
41.76,11.18
42.18,11.18
42.60,11.18
43.03,11.17
43.46,11.17
43.90,11.17
44.33,11.16
44.78,11.16
45.23,11.16
45.68,11.15
46.13,11.14
46.60,11.14
47.06,11.13
47.53,11.12
48.01,11.11
48.49,11.10
48.97,11.09
49.46,11.08
49.96,11.07
50.46,11.06
50.96,11.05
51.47,11.04
51.99,11.03
52.51,11.02
53.03,11.01
53.56,10.99
54.10,10.98
54.64,10.96
55.18,10.95
55.74,10.93
56.29,10.92
56.86,10.90
57.42,10.88
58.00,10.87
58.58,10.85
59.16,10.83
59.76,10.81
60.35,10.79
60.96,10.77
61.57,10.75
62.18,10.73
62.80,10.71
63.43,10.69
64.07,10.67
64.71,10.65
65.35,10.62
66.01,10.60
66.67,10.58
67.33,10.55
68.01,10.53
68.69,10.50
69.37,10.48
70.07,10.45
70.77,10.42
71.48,10.40
72.19,10.37
72.91,10.34
73.64,10.31
74.38,10.28
75.12,10.25
75.87,10.22
76.63,10.19
77.40,10.16
78.17,10.13
78.95,10.10
79.74,10.07
80.54,10.04
81.35,10.00
82.16,9.97
82.98,9.94
83.81,9.90
84.65,9.87
85.50,9.83
86.35,9.80
87.22,9.76
88.09,9.72
88.97,9.69
89.86,9.65
90.76,9.61
91.66,9.57
92.58,9.54
93.51,9.50
94.44,9.46
95.39,9.42
96.34,9.38
97.30,9.34
98.28,9.30
99.26,9.26
100.25,9.21
101.25,9.17
102.27,9.13
103.29,9.09
104.32,9.04
105.37,9.00
106.42,8.96
107.48,8.91
108.56,8.87
109.64,8.82
110.74,8.78
111.85,8.73
112.97,8.68
114.10,8.64
115.24,8.59
116.39,8.54
117.55,8.50
118.73,8.45
119.92,8.40
121.12,8.35
122.33,8.30
123.55,8.25
124.79,8.20
126.03,8.15
127.29,8.10
128.57,8.05
129.85,8.00
131.15,7.95
132.46,7.90
133.79,7.84
135.12,7.79
136.48,7.74
137.84,7.69
139.22,7.63
140.61,7.58
142.02,7.53
143.44,7.47
144.87,7.42
146.32,7.37
147.78,7.31
149.26,7.26
150.75,7.20
152.26,7.15
153.78,7.09
155.32,7.03
156.88,6.98
158.44,6.92
160.03,6.86
161.63,6.81
163.24,6.75
164.88,6.69
166.53,6.64
168.19,6.58
169.87,6.52
171.57,6.46
173.29,6.40
175.02,6.34
176.77,6.29
178.54,6.23
180.32,6.17
182.13,6.11
183.95,6.05
185.79,5.99
187.65,5.93
189.52,5.87
191.42,5.81
193.33,5.75
195.27,5.69
197.22,5.63
199.19,5.57
201.18,5.51
203.19,5.45
205.23,5.39
207.28,5.34
209.35,5.28
211.44,5.22
213.56,5.16
215.69,5.10
217.85,5.04
220.03,4.98
222.23,4.91
224.45,4.85
226.70,4.79
228.96,4.73
231.25,4.67
233.57,4.60
235.90,4.54
238.26,4.48
240.64,4.42
243.05,4.36
245.48,4.29
247.93,4.23
250.41,4.17
252.92,4.11
255.45,4.04
258.00,3.98
260.58,3.92
263.19,3.86
265.82,3.79
268.48,3.73
271.16,3.67
273.87,3.61
276.61,3.55
279.38,3.49
282.17,3.43
284.99,3.38
287.84,3.32
290.72,3.26
293.63,3.21
296.57,3.15
299.53,3.09
302.53,3.03
305.55,2.97
308.61,2.91
311.69,2.85
314.81,2.79
317.96,2.73
321.14,2.67
324.35,2.61
327.59,2.55
330.87,2.50
334.18,2.44
337.52,2.38
340.90,2.32
344.30,2.26
347.75,2.20
351.23,2.14
354.74,2.08
358.28,2.03
361.87,1.97
365.49,1.91
369.14,1.85
372.83,1.80
376.56,1.74
380.33,1.69
384.13,1.63
387.97,1.57
391.85,1.52
395.77,1.46
399.73,1.41
403.72,1.36
407.76,1.30
411.84,1.25
415.96,1.20
420.12,1.14
424.32,1.09
428.56,1.04
432.85,0.99
437.18,0.93
441.55,0.88
445.96,0.83
450.42,0.78
454.93,0.73
459.48,0.68
464.07,0.63
468.71,0.58
473.40,0.54
478.13,0.49
482.91,0.44
487.74,0.40
492.62,0.35
497.55,0.31
502.52,0.26
507.55,0.22
512.62,0.17
517.75,0.13
522.93,0.09
528.16,0.05
533.44,0.01
538.77,-0.02
544.16,-0.06
549.60,-0.10
555.10,-0.13
560.65,-0.17
566.25,-0.20
571.92,-0.24
577.64,-0.27
583.41,-0.31
589.25,-0.34
595.14,-0.37
601.09,-0.40
607.10,-0.44
613.17,-0.47
619.30,-0.49
625.50,-0.52
631.75,-0.55
638.07,-0.57
644.45,-0.60
650.89,-0.62
657.40,-0.65
663.98,-0.67
670.62,-0.69
677.32,-0.71
684.10,-0.72
690.94,-0.74
697.85,-0.75
704.83,-0.77
711.87,-0.78
718.99,-0.79
726.18,-0.80
733.44,-0.81
740.78,-0.81
748.19,-0.82
755.67,-0.82
763.23,-0.82
770.86,-0.82
778.57,-0.82
786.35,-0.81
794.22,-0.80
802.16,-0.79
810.18,-0.78
818.28,-0.77
826.46,-0.75
834.73,-0.73
843.08,-0.71
851.51,-0.69
860.02,-0.66
868.62,-0.64
877.31,-0.61
886.08,-0.58
894.94,-0.54
903.89,-0.51
912.93,-0.47
922.06,-0.43
931.28,-0.39
940.59,-0.34
950.00,-0.30
959.50,-0.25
969.09,-0.20
978.78,-0.14
988.57,-0.07
998.46,-0.01
1008.44,0.06
1018.53,0.12
1028.71,0.19
1039.00,0.26
1049.39,0.32
1059.88,0.39
1070.48,0.46
1081.19,0.53
1092.00,0.60
1102.92,0.67
1113.95,0.74
1125.09,0.81
1136.34,0.89
1147.70,0.97
1159.18,1.05
1170.77,1.13
1182.48,1.21
1194.30,1.30
1206.25,1.38
1218.31,1.46
1230.49,1.55
1242.80,1.63
1255.22,1.72
1267.78,1.81
1280.45,1.89
1293.26,1.99
1306.19,2.08
1319.25,2.17
1332.45,2.27
1345.77,2.37
1359.23,2.47
1372.82,2.57
1386.55,2.68
1400.41,2.78
1414.42,2.90
1428.56,3.01
1442.85,3.13
1457.28,3.25
1471.85,3.38
1486.57,3.50
1501.43,3.63
1516.45,3.78
1531.61,3.92
1546.93,4.06
1562.40,4.21
1578.02,4.37
1593.80,4.52
1609.74,4.69
1625.84,4.86
1642.10,5.03
1658.52,5.22
1675.10,5.40
1691.85,5.59
1708.77,5.79
1725.86,6.00
1743.12,6.20
1760.55,6.42
1778.15,6.64
1795.94,6.87
1813.90,7.10
1832.03,7.34
1850.36,7.58
1868.86,7.83
1887.55,8.09
1906.42,8.34
1925.49,8.61
1944.74,8.87
1964.19,9.14
1983.83,9.40
2003.67,9.67
2023.71,9.92
2043.94,10.18
2064.38,10.43
2085.03,10.66
2105.88,10.88
2126.94,11.09
2148.20,11.26
2169.69,11.44
2191.38,11.57
2213.30,11.67
2235.43,11.77
2257.78,11.80
2280.36,11.82
2303.17,11.82
2326.20,11.75
2349.46,11.68
2372.95,11.57
2396.68,11.43
2420.65,11.28
2444.86,11.10
2469.31,10.90
2494.00,10.70
2518.94,10.47
2544.13,10.23
2569.57,10.00
2595.27,9.76
2621.22,9.52
2647.43,9.27
2673.90,9.03
2700.64,8.80
2727.65,8.57
2754.93,8.35
2782.48,8.12
2810.30,7.91
2838.40,7.72
2866.79,7.53
2895.46,7.34
2924.41,7.18
2953.65,7.03
2983.19,6.87
3013.02,6.74
3043.15,6.62
3073.58,6.51
3104.32,6.43
3135.36,6.35
3166.72,6.28
3198.38,6.22
3230.37,6.17
3262.67,6.13
3295.30,6.10
3328.25,6.07
3361.53,6.05
3395.15,6.04
3429.10,6.03
3463.39,6.04
3498.03,6.07
3533.01,6.09
3568.34,6.14
3604.02,6.20
3640.06,6.26
3676.46,6.36
3713.22,6.47
3750.36,6.58
3787.86,6.74
3825.74,6.90
3864.00,7.07
3902.64,7.29
3941.66,7.52
3981.08,7.75
4020.89,8.02
4061.10,8.33
4101.71,8.64
4142.73,8.99
4184.15,9.38
4226.00,9.76
4268.26,10.17
4310.94,10.62
4354.05,11.06
4397.59,11.49
4441.56,11.91
4485.98,12.34
4530.84,12.66
4576.15,12.93
4621.91,13.20
4668.13,13.19
4714.81,13.19
4761.96,13.11
4809.58,12.79
4857.67,12.48
4906.25,12.00
4955.31,11.47
5004.87,10.93
5054.91,10.31
5105.46,9.70
5156.52,9.09
5208.08,8.52
5260.16,7.95
5312.77,7.40
5365.89,6.92
5419.55,6.45
5473.75,6.02
5528.49,5.64
5583.77,5.27
5639.61,4.98
5696.00,4.71
5752.96,4.45
5810.49,4.20
5868.60,4.05
5927.28,3.90
5986.56,3.75
6046.42,3.69
6106.89,3.65
6167.96,3.65
6229.64,3.71
6291.93,3.78
6354.85,3.95
6418.40,4.12
6482.58,4.29
6547.41,4.59
6612.88,4.92
6679.01,5.26
6745.80,5.77
6813.26,6.36
6881.39,6.95
6950.21,7.78
7019.71,8.71
7089.91,9.64
7160.81,10.77
7232.41,11.94
7304.74,13.09
7377.79,13.98
7451.56,14.87
7526.08,15.40
7601.34,15.25
7677.35,15.11
7754.13,14.91
7831.67,13.81
7909.98,12.70
7989.08,11.59
8068.98,10.42
8149.67,9.25
8231.16,8.07
8313.47,7.19
8396.61,6.39
8480.57,5.60
8565.38,5.09
8651.03,4.67
8737.54,4.25
8824.92,4.11
8913.17,4.00
9002.30,3.91
9092.32,4.15
9183.25,4.38
9275.08,4.73
9367.83,5.39
9461.51,6.04
9556.12,6.93
9651.68,7.98
9748.20,9.02
9845.68,10.00
9944.14,10.98
10043.58,11.57
10144.02,11.66
10245.46,11.74
10347.91,11.30
10451.39,10.25
10555.91,9.21
10661.46,7.96
10768.08,6.57
10875.76,5.18
10984.52,4.09
11094.36,3.08
11205.31,2.11
11317.36,1.72
11430.53,1.33
11544.84,1.15
11660.29,1.31
11776.89,1.47
11894.66,1.76
12013.60,2.09
12133.74,2.42
12255.08,2.46
12377.63,2.18
12501.41,1.88
12626.42,0.82
12752.68,-0.25
12880.21,-1.59
13009.01,-3.10
13139.10,-4.60
13270.49,-6.01
13403.20,-7.35
13537.23,-8.68
13672.60,-9.76
13809.33,-10.61
13947.42,-11.47
14086.90,-12.00
14227.77,-12.33
14370.04,-12.67
14513.74,-12.94
14658.88,-12.61
14805.47,-12.29
14953.52,-11.96
15103.06,-11.29
15254.09,-10.47
15406.63,-9.64
15560.70,-9.17
15716.30,-9.23
15873.47,-9.29
16032.20,-9.70
16192.52,-11.50
16354.45,-13.30
16517.99,-15.21
16683.17,-17.94
16850.01,-20.68
17018.51,-23.35
17188.69,-25.49
17360.58,-27.64
17534.18,-29.50
17709.53,-30.15
17886.62,-30.80
18065.49,-31.13
18246.14,-30.91
18428.60,-30.70
18612.89,-30.06
18799.02,-29.17
18987.01,-28.27
19176.88,-27.65
19368.65,-27.04
19562.33,-26.62
19757.96,-26.57
19955.54,-26.52
