frequency,raw
20.00,5.83
20.20,5.87
20.40,5.91
20.61,5.94
20.81,5.98
21.02,6.02
21.23,6.05
21.44,6.09
21.66,6.13
21.87,6.17
22.09,6.21
22.31,6.25
22.54,6.29
22.76,6.32
22.99,6.36
23.22,6.39
23.45,6.42
23.69,6.45
23.92,6.48
24.16,6.51
24.40,6.53
24.65,6.56
24.89,6.59
25.14,6.62
25.39,6.65
25.65,6.67
25.91,6.70
26.16,6.72
26.43,6.75
26.69,6.77
26.96,6.79
27.23,6.81
27.50,6.83
27.77,6.85
28.05,6.87
28.33,6.88
28.62,6.90
28.90,6.92
29.19,6.93
29.48,6.94
29.78,6.96
30.08,6.97
30.38,6.98
30.68,6.99
30.99,7.00
31.30,7.01
31.61,7.02
31.93,7.03
32.24,7.03
32.57,7.04
32.89,7.05
33.22,7.05
33.55,7.06
33.89,7.06
34.23,7.07
34.57,7.07
34.92,7.07
35.27,7.07
35.62,7.07
35.97,7.07
36.33,7.07
36.70,7.07
37.06,7.07
37.43,7.07
37.81,7.06
38.19,7.05
38.57,7.05
38.95,7.04
39.34,7.04
39.74,7.03
40.14,7.02
40.54,7.02
40.94,7.01
41.35,7.00
41.76,6.99
42.18,6.98
42.60,6.97
43.03,6.95
43.46,6.94
43.90,6.93
44.33,6.91
44.78,6.90
45.23,6.88
45.68,6.87
46.13,6.86
46.60,6.84
47.06,6.82
47.53,6.81
48.01,6.79
48.49,6.77
48.97,6.75
49.46,6.73
49.96,6.71
50.46,6.68
50.96,6.66
51.47,6.64
51.99,6.61
52.51,6.59
53.03,6.57
53.56,6.54
54.10,6.52
54.64,6.49
55.18,6.47
55.74,6.44
56.29,6.41
56.86,6.39
57.42,6.36
58.00,6.33
58.58,6.30
59.16,6.27
59.76,6.24
60.35,6.21
60.96,6.18
61.57,6.15
62.18,6.12
62.80,6.09
63.43,6.06
64.07,6.03
64.71,5.99
65.35,5.96
66.01,5.93
66.67,5.89
67.33,5.86
68.01,5.82
68.69,5.79
69.37,5.75
70.07,5.71
70.77,5.68
71.48,5.64
72.19,5.61
72.91,5.57
73.64,5.53
74.38,5.50
75.12,5.46
75.87,5.42
76.63,5.38
77.40,5.34
78.17,5.30
78.95,5.26
79.74,5.22
80.54,5.18
81.35,5.14
82.16,5.10
82.98,5.06
83.81,5.02
84.65,4.98
85.50,4.94
86.35,4.90
87.22,4.86
88.09,4.81
88.97,4.77
89.86,4.73
90.76,4.69
91.66,4.64
92.58,4.60
93.51,4.56
94.44,4.51
95.39,4.47
96.34,4.43
97.30,4.39
98.28,4.34
99.26,4.30
100.25,4.25
101.25,4.21
102.27,4.17
103.29,4.12
104.32,4.08
105.37,4.04
106.42,3.99
107.48,3.95
108.56,3.90
109.64,3.86
110.74,3.81
111.85,3.76
112.97,3.72
114.10,3.68
115.24,3.63
116.39,3.59
117.55,3.54
118.73,3.50
119.92,3.45
121.12,3.41
122.33,3.36
123.55,3.32
124.79,3.27
126.03,3.23
127.29,3.18
128.57,3.14
129.85,3.09
131.15,3.05
132.46,3.00
133.79,2.96
135.12,2.91
136.48,2.87
137.84,2.83
139.22,2.78
140.61,2.74
142.02,2.69
143.44,2.65
144.87,2.60
146.32,2.56
147.78,2.51
149.26,2.47
150.75,2.42
152.26,2.38
153.78,2.34
155.32,2.29
156.88,2.25
158.44,2.21
160.03,2.17
161.63,2.12
163.24,2.08
164.88,2.04
166.53,2.00
168.19,1.96
169.87,1.91
171.57,1.87
173.29,1.83
175.02,1.79
176.77,1.75
178.54,1.71
180.32,1.67
182.13,1.63
183.95,1.59
185.79,1.56
187.65,1.52
189.52,1.49
191.42,1.45
193.33,1.41
195.27,1.37
197.22,1.34
199.19,1.30
201.18,1.26
203.19,1.22
205.23,1.18
207.28,1.15
209.35,1.11
211.44,1.07
213.56,1.03
215.69,1.00
217.85,0.96
220.03,0.93
222.23,0.90
224.45,0.86
226.70,0.84
228.96,0.81
231.25,0.78
233.57,0.76
235.90,0.74
238.26,0.72
240.64,0.69
243.05,0.67
245.48,0.64
247.93,0.60
250.41,0.57
252.92,0.54
255.45,0.51
258.00,0.48
260.58,0.45
263.19,0.42
265.82,0.39
268.48,0.36
271.16,0.33
273.87,0.30
276.61,0.27
279.38,0.24
282.17,0.21
284.99,0.19
287.84,0.16
290.72,0.13
293.63,0.11
296.57,0.08
299.53,0.05
302.53,0.02
305.55,-0.00
308.61,-0.03
311.69,-0.06
314.81,-0.08
317.96,-0.11
321.14,-0.13
324.35,-0.16
327.59,-0.18
330.87,-0.20
334.18,-0.23
337.52,-0.25
340.90,-0.27
344.30,-0.29
347.75,-0.32
351.23,-0.34
354.74,-0.37
358.28,-0.38
361.87,-0.40
365.49,-0.42
369.14,-0.43
372.83,-0.44
376.56,-0.46
380.33,-0.49
384.13,-0.51
387.97,-0.54
391.85,-0.56
395.77,-0.58
399.73,-0.60
403.72,-0.61
407.76,-0.63
411.84,-0.65
415.96,-0.66
420.12,-0.68
424.32,-0.70
428.56,-0.71
432.85,-0.73
437.18,-0.74
441.55,-0.76
445.96,-0.77
450.42,-0.79
454.93,-0.80
459.48,-0.81
464.07,-0.83
468.71,-0.84
473.40,-0.86
478.13,-0.87
482.91,-0.88
487.74,-0.90
492.62,-0.91
497.55,-0.92
502.52,-0.93
507.55,-0.95
512.62,-0.96
517.75,-0.97
522.93,-0.98
528.16,-0.99
533.44,-1.00
538.77,-1.01
544.16,-1.02
549.60,-1.03
555.10,-1.03
560.65,-1.04
566.25,-1.05
571.92,-1.06
577.64,-1.07
583.41,-1.07
589.25,-1.08
595.14,-1.08
601.09,-1.09
607.10,-1.09
613.17,-1.10
619.30,-1.10
625.50,-1.11
631.75,-1.11
638.07,-1.11
644.45,-1.12
650.89,-1.12
657.40,-1.12
663.98,-1.12
670.62,-1.13
677.32,-1.13
684.10,-1.13
690.94,-1.13
697.85,-1.12
704.83,-1.12
711.87,-1.12
718.99,-1.11
726.18,-1.10
733.44,-1.10
740.78,-1.09
748.19,-1.08
755.67,-1.06
763.23,-1.05
770.86,-1.03
778.57,-1.01
786.35,-0.99
794.22,-0.97
802.16,-0.94
810.18,-0.91
818.28,-0.89
826.46,-0.86
834.73,-0.83
843.08,-0.80
851.51,-0.77
860.02,-0.73
868.62,-0.69
877.31,-0.66
886.08,-0.62
894.94,-0.58
903.89,-0.53
912.93,-0.49
922.06,-0.44
931.28,-0.39
940.59,-0.34
950.00,-0.29
959.50,-0.24
969.09,-0.18
978.78,-0.13
988.57,-0.07
998.46,-0.01
1008.44,0.06
1018.53,0.12
1028.71,0.19
1039.00,0.27
1049.39,0.35
1059.88,0.43
1070.48,0.51
1081.19,0.60
1092.00,0.68
1102.92,0.76
1113.95,0.84
1125.09,0.92
1136.34,1.00
1147.70,1.08
1159.18,1.15
1170.77,1.23
1182.48,1.30
1194.30,1.37
1206.25,1.44
1218.31,1.51
1230.49,1.57
1242.80,1.64
1255.22,1.70
1267.78,1.77
1280.45,1.83
1293.26,1.89
1306.19,1.95
1319.25,2.01
1332.45,2.07
1345.77,2.12
1359.23,2.18
1372.82,2.24
1386.55,2.29
1400.41,2.35
1414.42,2.40
1428.56,2.46
1442.85,2.51
1457.28,2.57
1471.85,2.62
1486.57,2.67
1501.43,2.73
1516.45,2.78
1531.61,2.84
1546.93,2.89
1562.40,2.94
1578.02,3.00
1593.80,3.06
1609.74,3.11
1625.84,3.17
1642.10,3.23
1658.52,3.29
1675.10,3.34
1691.85,3.40
1708.77,3.46
1725.86,3.53
1743.12,3.59
1760.55,3.65
1778.15,3.72
1795.94,3.78
1813.90,3.85
1832.03,3.92
1850.36,3.98
1868.86,4.06
1887.55,4.13
1906.42,4.20
1925.49,4.27
1944.74,4.35
1964.19,4.42
1983.83,4.50
2003.67,4.58
2023.71,4.66
2043.94,4.75
2064.38,4.83
2085.03,4.92
2105.88,5.00
2126.94,5.09
2148.20,5.18
2169.69,5.27
2191.38,5.36
2213.30,5.46
2235.43,5.55
2257.78,5.65
2280.36,5.75
2303.17,5.84
2326.20,5.94
2349.46,6.04
2372.95,6.14
2396.68,6.25
2420.65,6.35
2444.86,6.45
2469.31,6.55
2494.00,6.66
2518.94,6.76
2544.13,6.86
2569.57,6.97
2595.27,7.07
2621.22,7.17
2647.43,7.27
2673.90,7.37
2700.64,7.47
2727.65,7.56
2754.93,7.65
2782.48,7.74
2810.30,7.83
2838.40,7.90
2866.79,7.98
2895.46,8.05
2924.41,8.11
2953.65,8.17
2983.19,8.22
3013.02,8.27
3043.15,8.30
3073.58,8.34
3104.32,8.35
3135.36,8.36
3166.72,8.36
3198.38,8.34
3230.37,8.33
3262.67,8.30
3295.30,8.25
3328.25,8.21
3361.53,8.15
3395.15,8.07
3429.10,7.99
3463.39,7.90
3498.03,7.80
3533.01,7.69
3568.34,7.57
3604.02,7.44
3640.06,7.31
3676.46,7.16
3713.22,7.01
3750.36,6.86
3787.86,6.69
3825.74,6.53
3864.00,6.36
3902.64,6.19
3941.66,6.01
3981.08,5.83
4020.89,5.65
4061.10,5.47
4101.71,5.28
4142.73,5.10
4184.15,4.91
4226.00,4.73
4268.26,4.54
4310.94,4.35
4354.05,4.17
4397.59,3.98
4441.56,3.79
4485.98,3.61
4530.84,3.42
4576.15,3.24
4621.91,3.06
4668.13,2.88
4714.81,2.71
4761.96,2.53
4809.58,2.37
4857.67,2.20
4906.25,2.04
4955.31,1.89
5004.87,1.74
5054.91,1.60
5105.46,1.46
5156.52,1.32
5208.08,1.20
5260.16,1.07
5312.77,0.95
5365.89,0.85
5419.55,0.74
5473.75,0.64
5528.49,0.55
5583.77,0.47
5639.61,0.40
5696.00,0.35
5752.96,0.29
5810.49,0.24
5868.60,0.22
5927.28,0.19
5986.56,0.17
6046.42,0.18
6106.89,0.19
6167.96,0.21
6229.64,0.25
6291.93,0.30
6354.85,0.38
6418.40,0.46
6482.58,0.55
6547.41,0.67
6612.88,0.82
6679.01,0.96
6745.80,1.15
6813.26,1.35
6881.39,1.56
6950.21,1.83
7019.71,2.12
7089.91,2.41
7160.81,2.79
7232.41,3.17
7304.74,3.56
7377.79,4.03
7451.56,4.50
7526.08,4.98
7601.34,5.47
7677.35,5.95
7754.13,6.43
7831.67,6.71
7909.98,6.99
7989.08,7.27
8068.98,7.17
8149.67,7.01
8231.16,6.85
8313.47,6.36
8396.61,5.77
8480.57,5.19
8565.38,4.45
8651.03,3.66
8737.54,2.87
8824.92,2.10
8913.17,1.32
9002.30,0.54
9092.32,-0.13
9183.25,-0.81
9275.08,-1.45
9367.83,-2.01
9461.51,-2.56
9556.12,-3.03
9651.68,-3.46
9748.20,-3.88
9845.68,-4.17
9944.14,-4.47
10043.58,-4.72
10144.02,-4.91
10245.46,-5.11
10347.91,-5.26
10451.39,-5.38
10555.91,-5.50
10661.46,-5.57
10768.08,-5.62
10875.76,-5.66
10984.52,-5.67
11094.36,-5.66
11205.31,-5.65
11317.36,-5.61
11430.53,-5.58
11544.84,-5.55
11660.29,-5.52
11776.89,-5.49
11894.66,-5.51
12013.60,-5.54
12133.74,-5.57
12255.08,-5.67
12377.63,-5.83
12501.41,-6.00
12626.42,-6.30
12752.68,-6.59
12880.21,-6.94
13009.01,-7.32
13139.10,-7.71
13270.49,-8.09
13403.20,-8.46
13537.23,-8.83
13672.60,-9.16
13809.33,-9.44
13947.42,-9.72
14086.90,-9.90
14227.77,-10.01
14370.04,-10.12
14513.74,-10.21
14658.88,-10.04
14805.47,-9.88
14953.52,-9.71
15103.06,-9.42
15254.09,-9.06
15406.63,-8.70
15560.70,-8.49
15716.30,-8.48
15873.47,-8.48
16032.20,-8.63
16192.52,-9.40
16354.45,-10.16
16517.99,-10.99
16683.17,-12.29
16850.01,-13.59
17018.51,-14.89
17188.69,-16.19
17360.58,-17.49
17534.18,-18.73
17709.53,-19.75
17886.62,-20.78
18065.49,-21.75
18246.14,-22.62
18428.60,-23.50
18612.89,-24.28
18799.02,-25.00
18987.01,-25.72
19176.88,-26.37
19368.65,-27.02
19562.33,-27.60
19757.96,-28.06
19955.54,-28.52
