frequency,raw
20.00,11.05
20.20,11.05
20.40,11.05
20.61,11.05
20.81,11.05
21.02,11.04
21.23,11.04
21.44,11.04
21.66,11.03
21.87,11.03
22.09,11.03
22.31,11.03
22.54,11.02
22.76,11.02
22.99,11.01
23.22,11.00
23.45,10.99
23.69,10.97
23.92,10.95
24.16,10.93
24.40,10.91
24.65,10.89
24.89,10.87
25.14,10.85
25.39,10.82
25.65,10.80
25.91,10.78
26.16,10.77
26.43,10.75
26.69,10.74
26.96,10.72
27.23,10.70
27.50,10.68
27.77,10.65
28.05,10.63
28.33,10.60
28.62,10.56
28.90,10.53
29.19,10.50
29.48,10.47
29.78,10.44
30.08,10.41
30.38,10.38
30.68,10.35
30.99,10.33
31.30,10.32
31.61,10.30
31.93,10.27
32.24,10.24
32.57,10.21
32.89,10.17
33.22,10.13
33.55,10.10
33.89,10.06
34.23,10.02
34.57,9.99
34.92,9.94
35.27,9.90
35.62,9.85
35.97,9.81
36.33,9.76
36.70,9.71
37.06,9.67
37.43,9.63
37.81,9.58
38.19,9.53
38.57,9.49
38.95,9.44
39.34,9.38
39.74,9.33
40.14,9.28
40.54,9.24
40.94,9.19
41.35,9.14
41.76,9.10
42.18,9.05
42.60,8.99
43.03,8.94
43.46,8.88
43.90,8.82
44.33,8.76
44.78,8.70
45.23,8.64
45.68,8.58
46.13,8.52
46.60,8.46
47.06,8.40
47.53,8.35
48.01,8.29
48.49,8.24
48.97,8.18
49.46,8.13
49.96,8.07
50.46,8.01
50.96,7.95
51.47,7.88
51.99,7.81
52.51,7.75
53.03,7.68
53.56,7.62
54.10,7.56
54.64,7.50
55.18,7.43
55.74,7.37
56.29,7.29
56.86,7.22
57.42,7.14
58.00,7.07
58.58,7.00
59.16,6.93
59.76,6.86
60.35,6.79
60.96,6.73
61.57,6.67
62.18,6.61
62.80,6.55
63.43,6.48
64.07,6.40
64.71,6.32
65.35,6.25
66.01,6.17
66.67,6.09
67.33,6.02
68.01,5.96
68.69,5.89
69.37,5.83
70.07,5.76
70.77,5.70
71.48,5.63
72.19,5.57
72.91,5.50
73.64,5.43
74.38,5.36
75.12,5.29
75.87,5.22
76.63,5.15
77.40,5.09
78.17,5.02
78.95,4.95
79.74,4.88
80.54,4.82
81.35,4.75
82.16,4.68
82.98,4.62
83.81,4.55
84.65,4.49
85.50,4.42
86.35,4.36
87.22,4.29
88.09,4.23
88.97,4.17
89.86,4.10
90.76,4.04
91.66,3.98
92.58,3.92
93.51,3.86
94.44,3.80
95.39,3.74
96.34,3.68
97.30,3.63
98.28,3.57
99.26,3.51
100.25,3.46
101.25,3.41
102.27,3.35
103.29,3.30
104.32,3.25
105.37,3.20
106.42,3.16
107.48,3.11
108.56,3.06
109.64,3.02
110.74,2.98
111.85,2.93
112.97,2.89
114.10,2.85
115.24,2.81
116.39,2.78
117.55,2.74
118.73,2.70
119.92,2.67
121.12,2.63
122.33,2.59
123.55,2.56
124.79,2.53
126.03,2.50
127.29,2.47
128.57,2.45
129.85,2.42
131.15,2.40
132.46,2.38
133.79,2.35
135.12,2.33
136.48,2.31
137.84,2.30
139.22,2.28
140.61,2.26
142.02,2.25
143.44,2.23
144.87,2.22
146.32,2.21
147.78,2.20
149.26,2.18
150.75,2.18
152.26,2.17
153.78,2.16
155.32,2.15
156.88,2.15
158.44,2.14
160.03,2.14
161.63,2.14
163.24,2.13
164.88,2.13
166.53,2.13
168.19,2.13
169.87,2.13
171.57,2.13
173.29,2.13
175.02,2.13
176.77,2.14
178.54,2.14
180.32,2.14
182.13,2.15
183.95,2.15
185.79,2.16
187.65,2.16
189.52,2.17
191.42,2.17
193.33,2.18
195.27,2.18
197.22,2.19
199.19,2.20
201.18,2.21
203.19,2.21
205.23,2.22
207.28,2.23
209.35,2.24
211.44,2.25
213.56,2.25
215.69,2.26
217.85,2.27
220.03,2.27
222.23,2.28
224.45,2.29
226.70,2.29
228.96,2.30
231.25,2.31
233.57,2.31
235.90,2.32
238.26,2.32
240.64,2.33
243.05,2.33
245.48,2.34
247.93,2.34
250.41,2.35
252.92,2.35
255.45,2.35
258.00,2.36
260.58,2.36
263.19,2.36
265.82,2.36
268.48,2.36
271.16,2.36
273.87,2.36
276.61,2.36
279.38,2.36
282.17,2.36
284.99,2.36
287.84,2.36
290.72,2.36
293.63,2.35
296.57,2.35
299.53,2.35
302.53,2.34
305.55,2.34
308.61,2.33
311.69,2.33
314.81,2.32
317.96,2.31
321.14,2.30
324.35,2.30
327.59,2.29
330.87,2.28
334.18,2.27
337.52,2.25
340.90,2.24
344.30,2.23
347.75,2.22
351.23,2.20
354.74,2.19
358.28,2.17
361.87,2.15
365.49,2.14
369.14,2.12
372.83,2.10
376.56,2.08
380.33,2.06
384.13,2.04
387.97,2.01
391.85,1.99
395.77,1.96
399.73,1.94
403.72,1.91
407.76,1.89
411.84,1.86
415.96,1.83
420.12,1.80
424.32,1.77
428.56,1.74
432.85,1.70
437.18,1.67
441.55,1.64
445.96,1.60
450.42,1.57
454.93,1.53
459.48,1.50
464.07,1.46
468.71,1.42
473.40,1.39
478.13,1.35
482.91,1.31
487.74,1.27
492.62,1.23
497.55,1.19
502.52,1.16
507.55,1.12
512.62,1.08
517.75,1.03
522.93,0.99
528.16,0.95
533.44,0.91
538.77,0.86
544.16,0.82
549.60,0.77
555.10,0.73
560.65,0.68
566.25,0.64
571.92,0.59
577.64,0.54
583.41,0.49
589.25,0.45
595.14,0.40
601.09,0.35
607.10,0.30
613.17,0.25
619.30,0.21
625.50,0.16
631.75,0.11
638.07,0.06
644.45,0.01
650.89,-0.03
657.40,-0.08
663.98,-0.13
670.62,-0.17
677.32,-0.22
684.10,-0.26
690.94,-0.31
697.85,-0.35
704.83,-0.39
711.87,-0.44
718.99,-0.47
726.18,-0.51
733.44,-0.55
740.78,-0.58
748.19,-0.62
755.67,-0.65
763.23,-0.67
770.86,-0.70
778.57,-0.72
786.35,-0.74
794.22,-0.76
802.16,-0.78
810.18,-0.79
818.28,-0.80
826.46,-0.80
834.73,-0.80
843.08,-0.80
851.51,-0.80
860.02,-0.78
868.62,-0.77
877.31,-0.75
886.08,-0.72
894.94,-0.70
903.89,-0.66
912.93,-0.62
922.06,-0.58
931.28,-0.53
940.59,-0.47
950.00,-0.41
959.50,-0.34
969.09,-0.27
978.78,-0.19
988.57,-0.10
998.46,-0.02
1008.44,0.08
1018.53,0.19
1028.71,0.29
1039.00,0.41
1049.39,0.52
1059.88,0.64
1070.48,0.78
1081.19,0.91
1092.00,1.04
1102.92,1.19
1113.95,1.34
1125.09,1.49
1136.34,1.64
1147.70,1.80
1159.18,1.97
1170.77,2.13
1182.48,2.30
1194.30,2.48
1206.25,2.66
1218.31,2.84
1230.49,3.02
1242.80,3.21
1255.22,3.40
1267.78,3.59
1280.45,3.78
1293.26,3.98
1306.19,4.18
1319.25,4.38
1332.45,4.58
1345.77,4.78
1359.23,4.99
1372.82,5.19
1386.55,5.40
1400.41,5.61
1414.42,5.81
1428.56,6.02
1442.85,6.23
1457.28,6.43
1471.85,6.63
1486.57,6.83
1501.43,7.03
1516.45,7.22
1531.61,7.41
1546.93,7.60
1562.40,7.77
1578.02,7.93
1593.80,8.10
1609.74,8.25
1625.84,8.39
1642.10,8.54
1658.52,8.66
1675.10,8.77
1691.85,8.89
1708.77,8.98
1725.86,9.06
1743.12,9.14
1760.55,9.21
1778.15,9.26
1795.94,9.31
1813.90,9.35
1832.03,9.37
1850.36,9.40
1868.86,9.41
1887.55,9.41
1906.42,9.41
1925.49,9.41
1944.74,9.40
1964.19,9.38
1983.83,9.36
2003.67,9.34
2023.71,9.31
2043.94,9.29
2064.38,9.26
2085.03,9.23
2105.88,9.20
2126.94,9.18
2148.20,9.15
2169.69,9.12
2191.38,9.10
2213.30,9.08
2235.43,9.06
2257.78,9.05
2280.36,9.04
2303.17,9.03
2326.20,9.03
2349.46,9.02
2372.95,9.03
2396.68,9.04
2420.65,9.05
2444.86,9.07
2469.31,9.09
2494.00,9.12
2518.94,9.15
2544.13,9.19
2569.57,9.22
2595.27,9.27
2621.22,9.31
2647.43,9.36
2673.90,9.42
2700.64,9.48
2727.65,9.53
2754.93,9.60
2782.48,9.66
2810.30,9.73
2838.40,9.79
2866.79,9.86
2895.46,9.93
2924.41,9.99
2953.65,10.05
2983.19,10.11
3013.02,10.17
3043.15,10.22
3073.58,10.28
3104.32,10.31
3135.36,10.35
3166.72,10.38
3198.38,10.40
3230.37,10.41
3262.67,10.42
3295.30,10.41
3328.25,10.40
3361.53,10.37
3395.15,10.34
3429.10,10.30
3463.39,10.25
3498.03,10.19
3533.01,10.12
3568.34,10.05
3604.02,9.97
3640.06,9.89
3676.46,9.81
3713.22,9.72
3750.36,9.63
3787.86,9.54
3825.74,9.44
3864.00,9.35
3902.64,9.27
3941.66,9.18
3981.08,9.09
4020.89,9.01
4061.10,8.93
4101.71,8.85
4142.73,8.78
4184.15,8.71
4226.00,8.65
4268.26,8.58
4310.94,8.52
4354.05,8.45
4397.59,8.39
4441.56,8.32
4485.98,8.25
4530.84,8.17
4576.15,8.08
4621.91,7.99
4668.13,7.88
4714.81,7.76
4761.96,7.63
4809.58,7.47
4857.67,7.31
4906.25,7.12
4955.31,6.93
5004.87,6.72
5054.91,6.48
5105.46,6.24
5156.52,6.00
5208.08,5.73
5260.16,5.46
5312.77,5.19
5365.89,4.91
5419.55,4.63
5473.75,4.36
5528.49,4.08
5583.77,3.81
5639.61,3.56
5696.00,3.32
5752.96,3.08
5810.49,2.84
5868.60,2.66
5927.28,2.47
5986.56,2.29
6046.42,2.15
6106.89,2.03
6167.96,1.94
6229.64,1.89
6291.93,1.84
6354.85,1.87
6418.40,1.92
6482.58,1.97
6547.41,2.11
6612.88,2.28
6679.01,2.46
6745.80,2.73
6813.26,3.05
6881.39,3.36
6950.21,3.75
7019.71,4.16
7089.91,4.58
7160.81,4.91
7232.41,5.23
7304.74,5.52
7377.79,5.44
7451.56,5.36
7526.08,5.11
7601.34,4.56
7677.35,4.00
7754.13,3.46
7831.67,3.20
7909.98,2.93
7989.08,2.67
8068.98,3.15
8149.67,3.74
8231.16,4.34
8313.47,5.08
8396.61,5.86
8480.57,6.65
8565.38,7.23
8651.03,7.77
8737.54,8.30
8824.92,8.70
8913.17,9.07
9002.30,9.45
9092.32,9.79
9183.25,10.13
9275.08,10.42
9367.83,10.59
9461.51,10.77
9556.12,10.74
9651.68,10.58
9748.20,10.42
9845.68,9.93
9944.14,9.43
10043.58,8.86
10144.02,8.21
10245.46,7.55
10347.91,6.95
10451.39,6.42
10555.91,5.90
10661.46,5.55
10768.08,5.33
10875.76,5.11
10984.52,5.10
11094.36,5.16
11205.31,5.22
11317.36,5.29
11430.53,5.37
11544.84,5.31
11660.29,5.05
11776.89,4.80
11894.66,4.14
12013.60,3.38
12133.74,2.63
12255.08,1.78
12377.63,0.83
12501.41,-0.12
12626.42,-0.92
12752.68,-1.72
12880.21,-2.35
13009.01,-2.88
13139.10,-3.40
13270.49,-3.72
13403.20,-3.85
13537.23,-3.98
13672.60,-3.86
13809.33,-3.51
13947.42,-3.17
14086.90,-2.66
14227.77,-2.07
14370.04,-1.47
14513.74,-0.85
14658.88,-0.00
14805.47,0.84
14953.52,1.69
15103.06,2.54
15254.09,3.40
15406.63,4.25
15560.70,4.92
15716.30,5.30
15873.47,5.68
16032.20,5.98
16192.52,5.92
16354.45,5.86
16517.99,5.79
16683.17,5.65
16850.01,5.51
17018.51,5.36
17188.69,5.12
17360.58,4.89
17534.18,4.63
17709.53,4.26
17886.62,3.90
18065.49,3.54
18246.14,3.18
18428.60,2.82
18612.89,2.28
18799.02,1.64
18987.01,0.99
19176.88,-0.31
19368.65,-1.66
19562.33,-3.07
19757.96,-4.60
19955.54,-6.12
