frequency,raw
20.00,7.33
20.20,7.36
20.40,7.38
20.61,7.40
20.81,7.43
21.02,7.45
21.23,7.47
21.44,7.50
21.66,7.52
21.87,7.53
22.09,7.53
22.31,7.53
22.54,7.51
22.76,7.49
22.99,7.47
23.22,7.45
23.45,7.44
23.69,7.42
23.92,7.42
24.16,7.42
24.40,7.42
24.65,7.43
24.89,7.44
25.14,7.45
25.39,7.45
25.65,7.45
25.91,7.44
26.16,7.42
26.43,7.40
26.69,7.38
26.96,7.35
27.23,7.33
27.50,7.31
27.77,7.29
28.05,7.27
28.33,7.25
28.62,7.23
28.90,7.21
29.19,7.19
29.48,7.16
29.78,7.13
30.08,7.10
30.38,7.08
30.68,7.05
30.99,7.03
31.30,7.02
31.61,7.00
31.93,6.97
32.24,6.95
32.57,6.93
32.89,6.88
33.22,6.84
33.55,6.80
33.89,6.76
34.23,6.71
34.57,6.67
34.92,6.63
35.27,6.59
35.62,6.54
35.97,6.50
36.33,6.46
36.70,6.42
37.06,6.37
37.43,6.32
37.81,6.27
38.19,6.21
38.57,6.15
38.95,6.10
39.34,6.05
39.74,6.00
40.14,5.94
40.54,5.89
40.94,5.83
41.35,5.78
41.76,5.72
42.18,5.66
42.60,5.60
43.03,5.54
43.46,5.48
43.90,5.42
44.33,5.37
44.78,5.31
45.23,5.25
45.68,5.19
46.13,5.14
46.60,5.07
47.06,5.00
47.53,4.93
48.01,4.86
48.49,4.79
48.97,4.72
49.46,4.66
49.96,4.59
50.46,4.53
50.96,4.46
51.47,4.39
51.99,4.32
52.51,4.24
53.03,4.17
53.56,4.09
54.10,4.02
54.64,3.95
55.18,3.88
55.74,3.81
56.29,3.74
56.86,3.66
57.42,3.59
58.00,3.52
58.58,3.44
59.16,3.37
59.76,3.29
60.35,3.21
60.96,3.13
61.57,3.06
62.18,2.98
62.80,2.90
63.43,2.83
64.07,2.75
64.71,2.68
65.35,2.61
66.01,2.53
66.67,2.46
67.33,2.38
68.01,2.30
68.69,2.23
69.37,2.15
70.07,2.07
70.77,1.99
71.48,1.92
72.19,1.84
72.91,1.77
73.64,1.70
74.38,1.63
75.12,1.56
75.87,1.48
76.63,1.41
77.40,1.34
78.17,1.27
78.95,1.19
79.74,1.12
80.54,1.05
81.35,0.98
82.16,0.91
82.98,0.84
83.81,0.78
84.65,0.71
85.50,0.64
86.35,0.57
87.22,0.51
88.09,0.44
88.97,0.37
89.86,0.30
90.76,0.23
91.66,0.17
92.58,0.10
93.51,0.04
94.44,-0.02
95.39,-0.08
96.34,-0.14
97.30,-0.20
98.28,-0.26
99.26,-0.33
100.25,-0.39
101.25,-0.45
102.27,-0.50
103.29,-0.56
104.32,-0.62
105.37,-0.68
106.42,-0.73
107.48,-0.79
108.56,-0.84
109.64,-0.90
110.74,-0.95
111.85,-1.01
112.97,-1.06
114.10,-1.11
115.24,-1.15
116.39,-1.20
117.55,-1.25
118.73,-1.29
119.92,-1.33
121.12,-1.37
122.33,-1.42
123.55,-1.46
124.79,-1.50
126.03,-1.54
127.29,-1.57
128.57,-1.61
129.85,-1.65
131.15,-1.69
132.46,-1.73
133.79,-1.76
135.12,-1.80
136.48,-1.83
137.84,-1.87
139.22,-1.90
140.61,-1.93
142.02,-1.96
143.44,-1.99
144.87,-2.02
146.32,-2.05
147.78,-2.08
149.26,-2.11
150.75,-2.14
152.26,-2.16
153.78,-2.19
155.32,-2.22
156.88,-2.24
158.44,-2.26
160.03,-2.29
161.63,-2.31
163.24,-2.33
164.88,-2.36
166.53,-2.38
168.19,-2.40
169.87,-2.42
171.57,-2.44
173.29,-2.45
175.02,-2.47
176.77,-2.49
178.54,-2.50
180.32,-2.52
182.13,-2.54
183.95,-2.55
185.79,-2.57
187.65,-2.59
189.52,-2.60
191.42,-2.62
193.33,-2.63
195.27,-2.65
197.22,-2.66
199.19,-2.68
201.18,-2.69
203.19,-2.70
205.23,-2.72
207.28,-2.73
209.35,-2.74
211.44,-2.75
213.56,-2.76
215.69,-2.78
217.85,-2.79
220.03,-2.80
222.23,-2.81
224.45,-2.82
226.70,-2.83
228.96,-2.83
231.25,-2.84
233.57,-2.85
235.90,-2.85
238.26,-2.86
240.64,-2.86
243.05,-2.86
245.48,-2.87
247.93,-2.87
250.41,-2.87
252.92,-2.88
255.45,-2.89
258.00,-2.89
260.58,-2.90
263.19,-2.90
265.82,-2.91
268.48,-2.92
271.16,-2.92
273.87,-2.92
276.61,-2.93
279.38,-2.93
282.17,-2.93
284.99,-2.93
287.84,-2.93
290.72,-2.94
293.63,-2.94
296.57,-2.94
299.53,-2.94
302.53,-2.94
305.55,-2.95
308.61,-2.95
311.69,-2.95
314.81,-2.95
317.96,-2.96
321.14,-2.96
324.35,-2.96
327.59,-2.97
330.87,-2.97
334.18,-2.97
337.52,-2.97
340.90,-2.97
344.30,-2.97
347.75,-2.97
351.23,-2.97
354.74,-2.97
358.28,-2.96
361.87,-2.96
365.49,-2.95
369.14,-2.95
372.83,-2.94
376.56,-2.94
380.33,-2.94
384.13,-2.94
387.97,-2.94
391.85,-2.94
395.77,-2.94
399.73,-2.94
403.72,-2.94
407.76,-2.94
411.84,-2.94
415.96,-2.93
420.12,-2.92
424.32,-2.92
428.56,-2.91
432.85,-2.90
437.18,-2.90
441.55,-2.89
445.96,-2.88
450.42,-2.87
454.93,-2.86
459.48,-2.85
464.07,-2.84
468.71,-2.82
473.40,-2.81
478.13,-2.80
482.91,-2.79
487.74,-2.78
492.62,-2.77
497.55,-2.76
502.52,-2.75
507.55,-2.74
512.62,-2.72
517.75,-2.71
522.93,-2.70
528.16,-2.68
533.44,-2.67
538.77,-2.65
544.16,-2.64
549.60,-2.62
555.10,-2.61
560.65,-2.59
566.25,-2.58
571.92,-2.56
577.64,-2.55
583.41,-2.53
589.25,-2.52
595.14,-2.50
601.09,-2.49
607.10,-2.47
613.17,-2.46
619.30,-2.44
625.50,-2.43
631.75,-2.41
638.07,-2.39
644.45,-2.37
650.89,-2.34
657.40,-2.32
663.98,-2.29
670.62,-2.27
677.32,-2.24
684.10,-2.22
690.94,-2.19
697.85,-2.16
704.83,-2.13
711.87,-2.10
718.99,-2.07
726.18,-2.03
733.44,-2.00
740.78,-1.97
748.19,-1.93
755.67,-1.89
763.23,-1.85
770.86,-1.81
778.57,-1.77
786.35,-1.73
794.22,-1.68
802.16,-1.64
810.18,-1.59
818.28,-1.53
826.46,-1.48
834.73,-1.43
843.08,-1.37
851.51,-1.31
860.02,-1.25
868.62,-1.18
877.31,-1.12
886.08,-1.04
894.94,-0.97
903.89,-0.90
912.93,-0.82
922.06,-0.74
931.28,-0.66
940.59,-0.57
950.00,-0.49
959.50,-0.39
969.09,-0.30
978.78,-0.21
988.57,-0.11
998.46,-0.02
1008.44,0.08
1018.53,0.18
1028.71,0.28
1039.00,0.38
1049.39,0.48
1059.88,0.58
1070.48,0.69
1081.19,0.79
1092.00,0.90
1102.92,1.01
1113.95,1.11
1125.09,1.22
1136.34,1.33
1147.70,1.43
1159.18,1.54
1170.77,1.64
1182.48,1.75
1194.30,1.85
1206.25,1.95
1218.31,2.06
1230.49,2.15
1242.80,2.25
1255.22,2.34
1267.78,2.43
1280.45,2.52
1293.26,2.61
1306.19,2.69
1319.25,2.78
1332.45,2.86
1345.77,2.95
1359.23,3.03
1372.82,3.11
1386.55,3.19
1400.41,3.27
1414.42,3.34
1428.56,3.41
1442.85,3.49
1457.28,3.56
1471.85,3.63
1486.57,3.70
1501.43,3.77
1516.45,3.84
1531.61,3.91
1546.93,3.97
1562.40,4.04
1578.02,4.10
1593.80,4.16
1609.74,4.22
1625.84,4.28
1642.10,4.33
1658.52,4.39
1675.10,4.44
1691.85,4.50
1708.77,4.55
1725.86,4.60
1743.12,4.66
1760.55,4.71
1778.15,4.76
1795.94,4.81
1813.90,4.86
1832.03,4.91
1850.36,4.96
1868.86,5.01
1887.55,5.06
1906.42,5.11
1925.49,5.16
1944.74,5.21
1964.19,5.25
1983.83,5.29
2003.67,5.34
2023.71,5.38
2043.94,5.42
2064.38,5.46
2085.03,5.50
2105.88,5.55
2126.94,5.59
2148.20,5.64
2169.69,5.68
2191.38,5.73
2213.30,5.78
2235.43,5.83
2257.78,5.88
2280.36,5.93
2303.17,5.99
2326.20,6.04
2349.46,6.10
2372.95,6.15
2396.68,6.21
2420.65,6.27
2444.86,6.33
2469.31,6.39
2494.00,6.45
2518.94,6.50
2544.13,6.56
2569.57,6.62
2595.27,6.66
2621.22,6.70
2647.43,6.75
2673.90,6.77
2700.64,6.79
2727.65,6.80
2754.93,6.80
2782.48,6.79
2810.30,6.76
2838.40,6.71
2866.79,6.66
2895.46,6.61
2924.41,6.53
2953.65,6.44
2983.19,6.36
3013.02,6.26
3043.15,6.16
3073.58,6.06
3104.32,5.97
3135.36,5.87
3166.72,5.79
3198.38,5.71
3230.37,5.63
3262.67,5.56
3295.30,5.50
3328.25,5.44
3361.53,5.39
3395.15,5.35
3429.10,5.30
3463.39,5.27
3498.03,5.25
3533.01,5.22
3568.34,5.21
3604.02,5.21
3640.06,5.20
3676.46,5.22
3713.22,5.24
3750.36,5.26
3787.86,5.30
3825.74,5.35
3864.00,5.39
3902.64,5.45
3941.66,5.51
3981.08,5.56
4020.89,5.62
4061.10,5.67
4101.71,5.72
4142.73,5.76
4184.15,5.78
4226.00,5.81
4268.26,5.81
4310.94,5.78
4354.05,5.75
4397.59,5.68
4441.56,5.59
4485.98,5.49
4530.84,5.35
4576.15,5.18
4621.91,5.01
4668.13,4.78
4714.81,4.55
4761.96,4.31
4809.58,4.02
4857.67,3.74
4906.25,3.44
4955.31,3.13
5004.87,2.82
5054.91,2.50
5105.46,2.18
5156.52,1.86
5208.08,1.56
5260.16,1.25
5312.77,0.95
5365.89,0.67
5419.55,0.39
5473.75,0.12
5528.49,-0.12
5583.77,-0.36
5639.61,-0.57
5696.00,-0.76
5752.96,-0.95
5810.49,-1.13
5868.60,-1.26
5927.28,-1.39
5986.56,-1.52
6046.42,-1.61
6106.89,-1.70
6167.96,-1.77
6229.64,-1.81
6291.93,-1.86
6354.85,-1.87
6418.40,-1.87
6482.58,-1.87
6547.41,-1.85
6612.88,-1.81
6679.01,-1.77
6745.80,-1.70
6813.26,-1.62
6881.39,-1.54
6950.21,-1.43
7019.71,-1.31
7089.91,-1.19
7160.81,-1.02
7232.41,-0.85
7304.74,-0.68
7377.79,-0.46
7451.56,-0.24
7526.08,-0.01
7601.34,0.23
7677.35,0.47
7754.13,0.70
7831.67,0.88
7909.98,1.06
7989.08,1.24
8068.98,1.28
8149.67,1.31
8231.16,1.33
8313.47,1.21
8396.61,1.05
8480.57,0.88
8565.38,0.62
8651.03,0.34
8737.54,0.05
8824.92,-0.28
8913.17,-0.60
9002.30,-0.93
9092.32,-1.21
9183.25,-1.50
9275.08,-1.76
9367.83,-1.95
9461.51,-2.13
9556.12,-2.26
9651.68,-2.34
9748.20,-2.42
9845.68,-2.39
9944.14,-2.37
10043.58,-2.29
10144.02,-2.15
10245.46,-2.01
10347.91,-1.83
10451.39,-1.61
10555.91,-1.39
10661.46,-1.15
10768.08,-0.88
10875.76,-0.62
10984.52,-0.32
11094.36,-0.02
11205.31,0.29
11317.36,0.58
11430.53,0.87
11544.84,1.12
11660.29,1.30
11776.89,1.48
11894.66,1.47
12013.60,1.41
12133.74,1.36
12255.08,1.22
12377.63,0.97
12501.41,0.72
12626.42,0.45
12752.68,0.19
12880.21,-0.05
13009.01,-0.27
13139.10,-0.48
13270.49,-0.72
13403.20,-0.97
13537.23,-1.22
13672.60,-1.44
13809.33,-1.66
13947.42,-1.87
14086.90,-1.97
14227.77,-2.00
14370.04,-2.04
14513.74,-2.09
14658.88,-2.36
14805.47,-2.63
14953.52,-2.90
15103.06,-3.44
15254.09,-4.12
15406.63,-4.80
15560.70,-5.36
15716.30,-5.76
15873.47,-6.15
16032.20,-6.41
16192.52,-6.14
16354.45,-5.86
16517.99,-5.58
16683.17,-5.28
16850.01,-4.97
17018.51,-4.80
17188.69,-5.70
17360.58,-6.60
17534.18,-7.69
17709.53,-9.57
17886.62,-11.44
18065.49,-12.70
18246.14,-12.89
18428.60,-13.07
18612.89,-12.91
18799.02,-12.53
18987.01,-12.16
19176.88,-12.16
19368.65,-12.18
19562.33,-12.28
19757.96,-12.52
19955.54,-12.76
