frequency,raw
20.00,0.86
20.20,0.93
20.40,1.00
20.61,1.07
20.81,1.13
21.02,1.20
21.23,1.27
21.44,1.34
21.66,1.41
21.87,1.47
22.09,1.53
22.31,1.59
22.54,1.65
22.76,1.71
22.99,1.77
23.22,1.82
23.45,1.88
23.69,1.94
23.92,2.00
24.16,2.05
24.40,2.11
24.65,2.16
24.89,2.21
25.14,2.26
25.39,2.31
25.65,2.35
25.91,2.40
26.16,2.45
26.43,2.50
26.69,2.55
26.96,2.61
27.23,2.66
27.50,2.70
27.77,2.75
28.05,2.79
28.33,2.83
28.62,2.87
28.90,2.91
29.19,2.96
29.48,3.00
29.78,3.04
30.08,3.08
30.38,3.12
30.68,3.16
30.99,3.19
31.30,3.23
31.61,3.26
31.93,3.30
32.24,3.33
32.57,3.36
32.89,3.39
33.22,3.43
33.55,3.46
33.89,3.49
34.23,3.51
34.57,3.54
34.92,3.57
35.27,3.60
35.62,3.62
35.97,3.65
36.33,3.67
36.70,3.69
37.06,3.71
37.43,3.74
37.81,3.76
38.19,3.78
38.57,3.80
38.95,3.82
39.34,3.84
39.74,3.86
40.14,3.88
40.54,3.90
40.94,3.92
41.35,3.94
41.76,3.95
42.18,3.97
42.60,3.98
43.03,4.00
43.46,4.01
43.90,4.02
44.33,4.04
44.78,4.05
45.23,4.06
45.68,4.07
46.13,4.08
46.60,4.09
47.06,4.09
47.53,4.10
48.01,4.11
48.49,4.12
48.97,4.12
49.46,4.13
49.96,4.14
50.46,4.14
50.96,4.14
51.47,4.15
51.99,4.15
52.51,4.15
53.03,4.15
53.56,4.15
54.10,4.15
54.64,4.15
55.18,4.15
55.74,4.15
56.29,4.15
56.86,4.14
57.42,4.14
58.00,4.14
58.58,4.14
59.16,4.13
59.76,4.13
60.35,4.13
60.96,4.12
61.57,4.11
62.18,4.10
62.80,4.09
63.43,4.08
64.07,4.07
64.71,4.06
65.35,4.05
66.01,4.04
66.67,4.03
67.33,4.02
68.01,4.01
68.69,3.99
69.37,3.98
70.07,3.97
70.77,3.95
71.48,3.94
72.19,3.92
72.91,3.91
73.64,3.89
74.38,3.88
75.12,3.86
75.87,3.84
76.63,3.82
77.40,3.80
78.17,3.79
78.95,3.77
79.74,3.75
80.54,3.72
81.35,3.70
82.16,3.68
82.98,3.66
83.81,3.64
84.65,3.62
85.50,3.60
86.35,3.57
87.22,3.55
88.09,3.53
88.97,3.50
89.86,3.48
90.76,3.46
91.66,3.43
92.58,3.40
93.51,3.38
94.44,3.35
95.39,3.33
96.34,3.30
97.30,3.27
98.28,3.24
99.26,3.22
100.25,3.19
101.25,3.16
102.27,3.13
103.29,3.10
104.32,3.07
105.37,3.04
106.42,3.01
107.48,2.98
108.56,2.95
109.64,2.92
110.74,2.88
111.85,2.85
112.97,2.82
114.10,2.79
115.24,2.75
116.39,2.72
117.55,2.69
118.73,2.65
119.92,2.62
121.12,2.58
122.33,2.54
123.55,2.51
124.79,2.47
126.03,2.44
127.29,2.40
128.57,2.36
129.85,2.32
131.15,2.29
132.46,2.25
133.79,2.21
135.12,2.17
136.48,2.13
137.84,2.10
139.22,2.06
140.61,2.02
142.02,1.98
143.44,1.94
144.87,1.90
146.32,1.86
147.78,1.81
149.26,1.77
150.75,1.73
152.26,1.68
153.78,1.64
155.32,1.59
156.88,1.54
158.44,1.49
160.03,1.45
161.63,1.41
163.24,1.37
164.88,1.33
166.53,1.30
168.19,1.28
169.87,1.25
171.57,1.25
173.29,1.24
175.02,1.23
176.77,1.22
178.54,1.21
180.32,1.19
182.13,1.17
183.95,1.14
185.79,1.11
187.65,1.07
189.52,1.04
191.42,1.00
193.33,0.96
195.27,0.92
197.22,0.87
199.19,0.83
201.18,0.79
203.19,0.75
205.23,0.71
207.28,0.67
209.35,0.63
211.44,0.59
213.56,0.56
215.69,0.52
217.85,0.48
220.03,0.44
222.23,0.40
224.45,0.36
226.70,0.32
228.96,0.29
231.25,0.25
233.57,0.21
235.90,0.17
238.26,0.14
240.64,0.10
243.05,0.06
245.48,0.03
247.93,-0.01
250.41,-0.04
252.92,-0.08
255.45,-0.11
258.00,-0.15
260.58,-0.18
263.19,-0.22
265.82,-0.25
268.48,-0.29
271.16,-0.32
273.87,-0.35
276.61,-0.39
279.38,-0.42
282.17,-0.45
284.99,-0.48
287.84,-0.51
290.72,-0.54
293.63,-0.57
296.57,-0.60
299.53,-0.63
302.53,-0.66
305.55,-0.68
308.61,-0.71
311.69,-0.73
314.81,-0.75
317.96,-0.78
321.14,-0.80
324.35,-0.82
327.59,-0.85
330.87,-0.87
334.18,-0.90
337.52,-0.92
340.90,-0.95
344.30,-0.97
347.75,-1.00
351.23,-1.02
354.74,-1.05
358.28,-1.07
361.87,-1.09
365.49,-1.12
369.14,-1.14
372.83,-1.16
376.56,-1.18
380.33,-1.20
384.13,-1.22
387.97,-1.24
391.85,-1.26
395.77,-1.28
399.73,-1.30
403.72,-1.32
407.76,-1.34
411.84,-1.36
415.96,-1.37
420.12,-1.39
424.32,-1.41
428.56,-1.42
432.85,-1.44
437.18,-1.45
441.55,-1.47
445.96,-1.48
450.42,-1.50
454.93,-1.51
459.48,-1.52
464.07,-1.53
468.71,-1.55
473.40,-1.56
478.13,-1.57
482.91,-1.58
487.74,-1.59
492.62,-1.60
497.55,-1.61
502.52,-1.61
507.55,-1.62
512.62,-1.63
517.75,-1.63
522.93,-1.64
528.16,-1.65
533.44,-1.65
538.77,-1.65
544.16,-1.66
549.60,-1.66
555.10,-1.66
560.65,-1.67
566.25,-1.67
571.92,-1.67
577.64,-1.67
583.41,-1.67
589.25,-1.67
595.14,-1.66
601.09,-1.66
607.10,-1.66
613.17,-1.65
619.30,-1.65
625.50,-1.64
631.75,-1.64
638.07,-1.63
644.45,-1.62
650.89,-1.61
657.40,-1.60
663.98,-1.59
670.62,-1.58
677.32,-1.57
684.10,-1.56
690.94,-1.54
697.85,-1.53
704.83,-1.51
711.87,-1.49
718.99,-1.47
726.18,-1.45
733.44,-1.43
740.78,-1.41
748.19,-1.39
755.67,-1.36
763.23,-1.33
770.86,-1.31
778.57,-1.28
786.35,-1.25
794.22,-1.22
802.16,-1.18
810.18,-1.15
818.28,-1.11
826.46,-1.07
834.73,-1.03
843.08,-0.99
851.51,-0.95
860.02,-0.90
868.62,-0.86
877.31,-0.81
886.08,-0.75
894.94,-0.70
903.89,-0.65
912.93,-0.59
922.06,-0.53
931.28,-0.47
940.59,-0.41
950.00,-0.35
959.50,-0.28
969.09,-0.22
978.78,-0.15
988.57,-0.08
998.46,-0.01
1008.44,0.06
1018.53,0.13
1028.71,0.21
1039.00,0.28
1049.39,0.35
1059.88,0.43
1070.48,0.51
1081.19,0.58
1092.00,0.66
1102.92,0.73
1113.95,0.81
1125.09,0.89
1136.34,0.96
1147.70,1.04
1159.18,1.12
1170.77,1.19
1182.48,1.27
1194.30,1.34
1206.25,1.41
1218.31,1.48
1230.49,1.54
1242.80,1.59
1255.22,1.63
1267.78,1.67
1280.45,1.70
1293.26,1.76
1306.19,1.83
1319.25,1.89
1332.45,1.98
1345.77,2.08
1359.23,2.18
1372.82,2.26
1386.55,2.34
1400.41,2.42
1414.42,2.50
1428.56,2.57
1442.85,2.64
1457.28,2.71
1471.85,2.78
1486.57,2.85
1501.43,2.92
1516.45,2.99
1531.61,3.06
1546.93,3.13
1562.40,3.20
1578.02,3.27
1593.80,3.34
1609.74,3.41
1625.84,3.48
1642.10,3.55
1658.52,3.62
1675.10,3.68
1691.85,3.75
1708.77,3.82
1725.86,3.89
1743.12,3.96
1760.55,4.03
1778.15,4.10
1795.94,4.16
1813.90,4.23
1832.03,4.30
1850.36,4.37
1868.86,4.43
1887.55,4.50
1906.42,4.57
1925.49,4.63
1944.74,4.70
1964.19,4.76
1983.83,4.83
2003.67,4.89
2023.71,4.95
2043.94,5.01
2064.38,5.08
2085.03,5.14
2105.88,5.19
2126.94,5.25
2148.20,5.31
2169.69,5.37
2191.38,5.42
2213.30,5.48
2235.43,5.53
2257.78,5.59
2280.36,5.64
2303.17,5.69
2326.20,5.74
2349.46,5.78
2372.95,5.83
2396.68,5.87
2420.65,5.91
2444.86,5.95
2469.31,5.99
2494.00,6.02
2518.94,6.05
2544.13,6.08
2569.57,6.10
2595.27,6.12
2621.22,6.14
2647.43,6.15
2673.90,6.16
2700.64,6.16
2727.65,6.16
2754.93,6.15
2782.48,6.14
2810.30,6.12
2838.40,6.09
2866.79,6.06
2895.46,6.03
2924.41,5.98
2953.65,5.93
2983.19,5.87
3013.02,5.80
3043.15,5.73
3073.58,5.65
3104.32,5.55
3135.36,5.46
3166.72,5.36
3198.38,5.25
3230.37,5.14
3262.67,5.03
3295.30,4.91
3328.25,4.78
3361.53,4.66
3395.15,4.54
3429.10,4.41
3463.39,4.28
3498.03,4.16
3533.01,4.03
3568.34,3.91
3604.02,3.79
3640.06,3.68
3676.46,3.57
3713.22,3.46
3750.36,3.35
3787.86,3.26
3825.74,3.17
3864.00,3.08
3902.64,3.01
3941.66,2.94
3981.08,2.88
4020.89,2.82
4061.10,2.78
4101.71,2.74
4142.73,2.71
4184.15,2.69
4226.00,2.67
4268.26,2.66
4310.94,2.67
4354.05,2.67
4397.59,2.68
4441.56,2.69
4485.98,2.71
4530.84,2.72
4576.15,2.73
4621.91,2.75
4668.13,2.75
4714.81,2.74
4761.96,2.73
4809.58,2.70
4857.67,2.67
4906.25,2.60
4955.31,2.52
5004.87,2.43
5054.91,2.29
5105.46,2.15
5156.52,2.01
5208.08,1.81
5260.16,1.61
5312.77,1.41
5365.89,1.17
5419.55,0.93
5473.75,0.68
5528.49,0.43
5583.77,0.17
5639.61,-0.08
5696.00,-0.33
5752.96,-0.58
5810.49,-0.82
5868.60,-1.03
5927.28,-1.24
5986.56,-1.45
6046.42,-1.62
6106.89,-1.79
6167.96,-1.94
6229.64,-2.06
6291.93,-2.18
6354.85,-2.25
6418.40,-2.32
6482.58,-2.38
6547.41,-2.39
6612.88,-2.38
6679.01,-2.37
6745.80,-2.30
6813.26,-2.21
6881.39,-2.11
6950.21,-2.00
7019.71,-1.89
7089.91,-1.78
7160.81,-1.65
7232.41,-1.50
7304.74,-1.33
7377.79,-0.78
7451.56,-0.23
7526.08,0.41
7601.34,1.19
7677.35,1.96
7754.13,2.73
7831.67,3.34
7909.98,3.95
7989.08,4.56
8068.98,4.53
8149.67,4.41
8231.16,4.28
8313.47,3.56
8396.61,2.68
8480.57,1.79
8565.38,0.75
8651.03,-0.34
8737.54,-1.43
8824.92,-2.31
8913.17,-3.16
9002.30,-4.00
9092.32,-4.51
9183.25,-5.03
9275.08,-5.48
9367.83,-5.79
9461.51,-6.09
9556.12,-6.35
9651.68,-6.58
9748.20,-6.80
9845.68,-6.99
9944.14,-7.18
10043.58,-7.34
10144.02,-7.46
10245.46,-7.57
10347.91,-7.62
10451.39,-7.58
10555.91,-7.54
10661.46,-7.37
10768.08,-7.10
10875.76,-6.83
10984.52,-6.30
11094.36,-5.70
11205.31,-5.08
11317.36,-4.11
11430.53,-3.15
11544.84,-2.18
11660.29,-1.18
11776.89,-0.19
11894.66,0.16
12013.60,0.35
12133.74,0.55
12255.08,0.21
12377.63,-0.75
12501.41,-1.72
12626.42,-3.12
12752.68,-4.52
12880.21,-5.82
13009.01,-7.06
13139.10,-8.29
13270.49,-9.34
13403.20,-10.21
13537.23,-11.08
13672.60,-11.72
13809.33,-12.16
13947.42,-12.60
14086.90,-12.68
14227.77,-12.55
14370.04,-12.42
14513.74,-12.24
14658.88,-11.55
14805.47,-10.87
14953.52,-10.19
15103.06,-9.65
15254.09,-9.18
15406.63,-8.70
15560.70,-8.60
15716.30,-9.06
15873.47,-9.53
16032.20,-10.09
16192.52,-11.04
16354.45,-12.00
16517.99,-12.93
16683.17,-13.75
16850.01,-14.56
17018.51,-15.38
17188.69,-16.16
17360.58,-16.93
17534.18,-17.75
17709.53,-18.73
17886.62,-19.71
18065.49,-20.91
18246.14,-22.49
18428.60,-24.08
18612.89,-25.83
18799.02,-27.69
18987.01,-29.54
19176.88,-31.00
19368.65,-32.43
19562.33,-33.65
19757.96,-34.42
19955.54,-35.20
