frequency,raw
20.00,6.46
20.20,6.52
20.40,6.58
20.61,6.64
20.81,6.70
21.02,6.75
21.23,6.81
21.44,6.88
21.66,6.94
21.87,7.00
22.09,7.06
22.31,7.12
22.54,7.18
22.76,7.24
22.99,7.29
23.22,7.35
23.45,7.41
23.69,7.46
23.92,7.51
24.16,7.57
24.40,7.62
24.65,7.67
24.89,7.72
25.14,7.77
25.39,7.81
25.65,7.86
25.91,7.91
26.16,7.95
26.43,8.00
26.69,8.04
26.96,8.08
27.23,8.13
27.50,8.17
27.77,8.21
28.05,8.24
28.33,8.28
28.62,8.32
28.90,8.36
29.19,8.39
29.48,8.42
29.78,8.46
30.08,8.49
30.38,8.52
30.68,8.56
30.99,8.59
31.30,8.62
31.61,8.65
31.93,8.67
32.24,8.70
32.57,8.73
32.89,8.75
33.22,8.78
33.55,8.80
33.89,8.83
34.23,8.85
34.57,8.87
34.92,8.89
35.27,8.91
35.62,8.93
35.97,8.95
36.33,8.97
36.70,8.98
37.06,8.99
37.43,9.01
37.81,9.02
38.19,9.04
38.57,9.05
38.95,9.07
39.34,9.08
39.74,9.09
40.14,9.11
40.54,9.12
40.94,9.13
41.35,9.14
41.76,9.14
42.18,9.15
42.60,9.16
43.03,9.16
43.46,9.17
43.90,9.17
44.33,9.17
44.78,9.18
45.23,9.18
45.68,9.18
46.13,9.18
46.60,9.18
47.06,9.18
47.53,9.18
48.01,9.18
48.49,9.17
48.97,9.17
49.46,9.17
49.96,9.16
50.46,9.16
50.96,9.15
51.47,9.14
51.99,9.14
52.51,9.13
53.03,9.12
53.56,9.11
54.10,9.10
54.64,9.09
55.18,9.08
55.74,9.07
56.29,9.05
56.86,9.04
57.42,9.03
58.00,9.01
58.58,9.00
59.16,8.98
59.76,8.97
60.35,8.95
60.96,8.93
61.57,8.92
62.18,8.90
62.80,8.88
63.43,8.86
64.07,8.84
64.71,8.82
65.35,8.80
66.01,8.78
66.67,8.75
67.33,8.73
68.01,8.71
68.69,8.68
69.37,8.66
70.07,8.64
70.77,8.61
71.48,8.58
72.19,8.56
72.91,8.53
73.64,8.50
74.38,8.47
75.12,8.44
75.87,8.41
76.63,8.38
77.40,8.35
78.17,8.32
78.95,8.29
79.74,8.26
80.54,8.23
81.35,8.19
82.16,8.16
82.98,8.13
83.81,8.09
84.65,8.06
85.50,8.02
86.35,7.99
87.22,7.95
88.09,7.91
88.97,7.87
89.86,7.84
90.76,7.80
91.66,7.76
92.58,7.72
93.51,7.68
94.44,7.64
95.39,7.60
96.34,7.56
97.30,7.52
98.28,7.48
99.26,7.43
100.25,7.39
101.25,7.35
102.27,7.31
103.29,7.26
104.32,7.22
105.37,7.17
106.42,7.13
107.48,7.08
108.56,7.04
109.64,6.99
110.74,6.94
111.85,6.90
112.97,6.85
114.10,6.80
115.24,6.75
116.39,6.70
117.55,6.65
118.73,6.60
119.92,6.55
121.12,6.50
122.33,6.45
123.55,6.40
124.79,6.35
126.03,6.30
127.29,6.25
128.57,6.19
129.85,6.14
131.15,6.09
132.46,6.03
133.79,5.98
135.12,5.92
136.48,5.87
137.84,5.81
139.22,5.75
140.61,5.70
142.02,5.64
143.44,5.59
144.87,5.53
146.32,5.48
147.78,5.43
149.26,5.37
150.75,5.32
152.26,5.27
153.78,5.22
155.32,5.17
156.88,5.12
158.44,5.07
160.03,5.02
161.63,4.97
163.24,4.92
164.88,4.87
166.53,4.82
168.19,4.77
169.87,4.71
171.57,4.66
173.29,4.61
175.02,4.55
176.77,4.50
178.54,4.44
180.32,4.39
182.13,4.33
183.95,4.27
185.79,4.22
187.65,4.16
189.52,4.10
191.42,4.04
193.33,3.99
195.27,3.93
197.22,3.87
199.19,3.81
201.18,3.75
203.19,3.70
205.23,3.64
207.28,3.58
209.35,3.52
211.44,3.46
213.56,3.40
215.69,3.34
217.85,3.28
220.03,3.22
222.23,3.16
224.45,3.11
226.70,3.05
228.96,2.99
231.25,2.93
233.57,2.87
235.90,2.82
238.26,2.76
240.64,2.71
243.05,2.65
245.48,2.60
247.93,2.54
250.41,2.49
252.92,2.44
255.45,2.39
258.00,2.34
260.58,2.28
263.19,2.23
265.82,2.18
268.48,2.12
271.16,2.07
273.87,2.01
276.61,1.95
279.38,1.90
282.17,1.84
284.99,1.79
287.84,1.73
290.72,1.68
293.63,1.62
296.57,1.56
299.53,1.51
302.53,1.45
305.55,1.40
308.61,1.35
311.69,1.29
314.81,1.24
317.96,1.18
321.14,1.13
324.35,1.08
327.59,1.03
330.87,0.97
334.18,0.92
337.52,0.87
340.90,0.82
344.30,0.77
347.75,0.72
351.23,0.67
354.74,0.61
358.28,0.57
361.87,0.52
365.49,0.47
369.14,0.42
372.83,0.37
376.56,0.32
380.33,0.27
384.13,0.23
387.97,0.18
391.85,0.13
395.77,0.09
399.73,0.04
403.72,-0.00
407.76,-0.05
411.84,-0.09
415.96,-0.13
420.12,-0.18
424.32,-0.22
428.56,-0.26
432.85,-0.31
437.18,-0.35
441.55,-0.39
445.96,-0.43
450.42,-0.47
454.93,-0.51
459.48,-0.55
464.07,-0.59
468.71,-0.62
473.40,-0.66
478.13,-0.70
482.91,-0.73
487.74,-0.77
492.62,-0.80
497.55,-0.84
502.52,-0.87
507.55,-0.90
512.62,-0.94
517.75,-0.97
522.93,-1.00
528.16,-1.03
533.44,-1.06
538.77,-1.09
544.16,-1.12
549.60,-1.14
555.10,-1.17
560.65,-1.20
566.25,-1.22
571.92,-1.24
577.64,-1.27
583.41,-1.29
589.25,-1.31
595.14,-1.33
601.09,-1.35
607.10,-1.37
613.17,-1.38
619.30,-1.40
625.50,-1.41
631.75,-1.43
638.07,-1.44
644.45,-1.45
650.89,-1.46
657.40,-1.47
663.98,-1.47
670.62,-1.48
677.32,-1.48
684.10,-1.49
690.94,-1.49
697.85,-1.49
704.83,-1.49
711.87,-1.49
718.99,-1.48
726.18,-1.47
733.44,-1.47
740.78,-1.46
748.19,-1.45
755.67,-1.44
763.23,-1.43
770.86,-1.42
778.57,-1.41
786.35,-1.39
794.22,-1.37
802.16,-1.34
810.18,-1.30
818.28,-1.25
826.46,-1.20
834.73,-1.16
843.08,-1.12
851.51,-1.07
860.02,-1.03
868.62,-0.98
877.31,-0.94
886.08,-0.88
894.94,-0.82
903.89,-0.76
912.93,-0.69
922.06,-0.63
931.28,-0.56
940.59,-0.49
950.00,-0.41
959.50,-0.34
969.09,-0.26
978.78,-0.18
988.57,-0.10
998.46,-0.01
1008.44,0.07
1018.53,0.16
1028.71,0.25
1039.00,0.34
1049.39,0.43
1059.88,0.52
1070.48,0.61
1081.19,0.71
1092.00,0.80
1102.92,0.90
1113.95,0.99
1125.09,1.09
1136.34,1.19
1147.70,1.29
1159.18,1.39
1170.77,1.48
1182.48,1.58
1194.30,1.68
1206.25,1.78
1218.31,1.87
1230.49,1.97
1242.80,2.07
1255.22,2.16
1267.78,2.26
1280.45,2.36
1293.26,2.45
1306.19,2.55
1319.25,2.65
1332.45,2.75
1345.77,2.85
1359.23,2.94
1372.82,3.04
1386.55,3.15
1400.41,3.25
1414.42,3.35
1428.56,3.46
1442.85,3.56
1457.28,3.67
1471.85,3.78
1486.57,3.89
1501.43,4.00
1516.45,4.11
1531.61,4.23
1546.93,4.34
1562.40,4.46
1578.02,4.58
1593.80,4.70
1609.74,4.82
1625.84,4.95
1642.10,5.08
1658.52,5.21
1675.10,5.34
1691.85,5.48
1708.77,5.62
1725.86,5.77
1743.12,5.92
1760.55,6.08
1778.15,6.24
1795.94,6.40
1813.90,6.57
1832.03,6.75
1850.36,6.92
1868.86,7.12
1887.55,7.32
1906.42,7.52
1925.49,7.74
1944.74,7.95
1964.19,8.16
1983.83,8.37
2003.67,8.58
2023.71,8.78
2043.94,8.98
2064.38,9.17
2085.03,9.35
2105.88,9.52
2126.94,9.69
2148.20,9.84
2169.69,9.99
2191.38,10.13
2213.30,10.25
2235.43,10.38
2257.78,10.48
2280.36,10.57
2303.17,10.66
2326.20,10.72
2349.46,10.78
2372.95,10.82
2396.68,10.84
2420.65,10.87
2444.86,10.86
2469.31,10.85
2494.00,10.83
2518.94,10.78
2544.13,10.73
2569.57,10.68
2595.27,10.61
2621.22,10.53
2647.43,10.45
2673.90,10.36
2700.64,10.26
2727.65,10.16
2754.93,10.05
2782.48,9.94
2810.30,9.84
2838.40,9.73
2866.79,9.62
2895.46,9.51
2924.41,9.41
2953.65,9.32
2983.19,9.22
3013.02,9.13
3043.15,9.05
3073.58,8.97
3104.32,8.91
3135.36,8.85
3166.72,8.81
3198.38,8.78
3230.37,8.76
3262.67,8.75
3295.30,8.76
3328.25,8.77
3361.53,8.79
3395.15,8.84
3429.10,8.88
3463.39,8.94
3498.03,9.03
3533.01,9.11
3568.34,9.21
3604.02,9.33
3640.06,9.45
3676.46,9.59
3713.22,9.75
3750.36,9.90
3787.86,10.08
3825.74,10.25
3864.00,10.43
3902.64,10.61
3941.66,10.79
3981.08,10.97
4020.89,11.12
4061.10,11.24
4101.71,11.37
4142.73,11.42
4184.15,11.42
4226.00,11.42
4268.26,11.35
4310.94,11.18
4354.05,11.01
4397.59,10.74
4441.56,10.41
4485.98,10.07
4530.84,9.66
4576.15,9.20
4621.91,8.74
4668.13,8.23
4714.81,7.72
4761.96,7.20
4809.58,6.68
4857.67,6.16
4906.25,5.65
4955.31,5.15
5004.87,4.65
5054.91,4.19
5105.46,3.73
5156.52,3.27
5208.08,2.86
5260.16,2.45
5312.77,2.05
5365.89,1.70
5419.55,1.34
5473.75,1.00
5528.49,0.69
5583.77,0.39
5639.61,0.12
5696.00,-0.12
5752.96,-0.37
5810.49,-0.61
5868.60,-0.78
5927.28,-0.96
5986.56,-1.14
6046.42,-1.27
6106.89,-1.39
6167.96,-1.49
6229.64,-1.55
6291.93,-1.61
6354.85,-1.61
6418.40,-1.59
6482.58,-1.58
6547.41,-1.50
6612.88,-1.39
6679.01,-1.29
6745.80,-1.10
6813.26,-0.88
6881.39,-0.66
6950.21,-0.33
7019.71,0.05
7089.91,0.42
7160.81,0.95
7232.41,1.51
7304.74,2.08
7377.79,2.83
7451.56,3.57
7526.08,4.31
7601.34,5.04
7677.35,5.76
7754.13,6.46
7831.67,6.63
7909.98,6.81
7989.08,6.98
8068.98,6.46
8149.67,5.82
8231.16,5.18
8313.47,4.22
8396.61,3.16
8480.57,2.11
8565.38,1.07
8651.03,0.05
8737.54,-0.97
8824.92,-1.84
8913.17,-2.69
9002.30,-3.52
9092.32,-4.20
9183.25,-4.87
9275.08,-5.49
9367.83,-5.97
9461.51,-6.45
9556.12,-6.80
9651.68,-7.05
9748.20,-7.30
9845.68,-7.37
9944.14,-7.44
10043.58,-7.45
10144.02,-7.39
10245.46,-7.34
10347.91,-7.21
10451.39,-7.00
10555.91,-6.79
10661.46,-6.46
10768.08,-6.03
10875.76,-5.61
10984.52,-4.99
11094.36,-4.31
11205.31,-3.63
11317.36,-2.81
11430.53,-2.00
11544.84,-1.25
11660.29,-0.63
11776.89,0.00
11894.66,0.09
12013.60,0.06
12133.74,0.02
12255.08,-0.31
12377.63,-0.98
12501.41,-1.66
12626.42,-2.46
12752.68,-3.26
12880.21,-3.86
13009.01,-4.34
13139.10,-4.83
13270.49,-5.13
13403.20,-5.28
13537.23,-5.44
13672.60,-5.44
13809.33,-5.32
13947.42,-5.20
14086.90,-5.08
14227.77,-4.96
14370.04,-4.84
14513.74,-4.76
14658.88,-5.08
14805.47,-5.40
14953.52,-5.72
15103.06,-6.24
15254.09,-6.86
15406.63,-7.48
15560.70,-8.05
15716.30,-8.56
15873.47,-9.07
16032.20,-9.51
16192.52,-9.66
16354.45,-9.80
16517.99,-9.94
16683.17,-9.95
16850.01,-9.97
17018.51,-10.05
17188.69,-10.64
17360.58,-11.22
17534.18,-11.97
17709.53,-13.38
17886.62,-14.78
18065.49,-16.31
18246.14,-18.07
18428.60,-19.83
18612.89,-21.46
18799.02,-23.02
18987.01,-24.58
19176.88,-25.89
19368.65,-27.18
19562.33,-28.35
19757.96,-29.29
19955.54,-30.23
