frequency,raw
20.00,8.01
20.20,8.04
20.40,8.07
20.61,8.10
20.81,8.13
21.02,8.15
21.23,8.18
21.44,8.21
21.66,8.24
21.87,8.27
22.09,8.30
22.31,8.33
22.54,8.36
22.76,8.38
22.99,8.41
23.22,8.43
23.45,8.45
23.69,8.48
23.92,8.50
24.16,8.52
24.40,8.54
24.65,8.56
24.89,8.58
25.14,8.60
25.39,8.61
25.65,8.63
25.91,8.64
26.16,8.66
26.43,8.67
26.69,8.69
26.96,8.70
27.23,8.71
27.50,8.72
27.77,8.73
28.05,8.74
28.33,8.75
28.62,8.75
28.90,8.76
29.19,8.77
29.48,8.77
29.78,8.78
30.08,8.78
30.38,8.79
30.68,8.79
30.99,8.79
31.30,8.80
31.61,8.80
31.93,8.80
32.24,8.80
32.57,8.80
32.89,8.79
33.22,8.79
33.55,8.79
33.89,8.78
34.23,8.78
34.57,8.77
34.92,8.77
35.27,8.76
35.62,8.75
35.97,8.74
36.33,8.73
36.70,8.72
37.06,8.71
37.43,8.71
37.81,8.69
38.19,8.68
38.57,8.67
38.95,8.66
39.34,8.64
39.74,8.63
40.14,8.61
40.54,8.60
40.94,8.58
41.35,8.56
41.76,8.54
42.18,8.52
42.60,8.51
43.03,8.49
43.46,8.46
43.90,8.44
44.33,8.42
44.78,8.40
45.23,8.38
45.68,8.35
46.13,8.33
46.60,8.31
47.06,8.28
47.53,8.26
48.01,8.23
48.49,8.20
48.97,8.18
49.46,8.15
49.96,8.12
50.46,8.09
50.96,8.06
51.47,8.03
51.99,8.00
52.51,7.97
53.03,7.94
53.56,7.91
54.10,7.87
54.64,7.84
55.18,7.81
55.74,7.77
56.29,7.74
56.86,7.70
57.42,7.67
58.00,7.63
58.58,7.60
59.16,7.56
59.76,7.52
60.35,7.49
60.96,7.45
61.57,7.41
62.18,7.37
62.80,7.33
63.43,7.29
64.07,7.25
64.71,7.21
65.35,7.17
66.01,7.13
66.67,7.09
67.33,7.05
68.01,7.00
68.69,6.96
69.37,6.92
70.07,6.88
70.77,6.83
71.48,6.79
72.19,6.74
72.91,6.70
73.64,6.65
74.38,6.61
75.12,6.56
75.87,6.51
76.63,6.47
77.40,6.42
78.17,6.37
78.95,6.33
79.74,6.28
80.54,6.23
81.35,6.18
82.16,6.14
82.98,6.09
83.81,6.04
84.65,5.99
85.50,5.94
86.35,5.89
87.22,5.84
88.09,5.79
88.97,5.74
89.86,5.69
90.76,5.64
91.66,5.59
92.58,5.54
93.51,5.49
94.44,5.43
95.39,5.38
96.34,5.33
97.30,5.28
98.28,5.23
99.26,5.17
100.25,5.12
101.25,5.07
102.27,5.02
103.29,4.96
104.32,4.91
105.37,4.86
106.42,4.80
107.48,4.75
108.56,4.70
109.64,4.64
110.74,4.59
111.85,4.54
112.97,4.48
114.10,4.43
115.24,4.37
116.39,4.32
117.55,4.27
118.73,4.21
119.92,4.16
121.12,4.10
122.33,4.05
123.55,3.99
124.79,3.94
126.03,3.88
127.29,3.83
128.57,3.77
129.85,3.72
131.15,3.66
132.46,3.61
133.79,3.55
135.12,3.50
136.48,3.44
137.84,3.39
139.22,3.33
140.61,3.27
142.02,3.22
143.44,3.16
144.87,3.11
146.32,3.05
147.78,2.99
149.26,2.94
150.75,2.88
152.26,2.83
153.78,2.77
155.32,2.71
156.88,2.65
158.44,2.60
160.03,2.54
161.63,2.48
163.24,2.42
164.88,2.36
166.53,2.30
168.19,2.24
169.87,2.18
171.57,2.12
173.29,2.07
175.02,2.02
176.77,1.99
178.54,1.97
180.32,1.95
182.13,1.95
183.95,1.95
185.79,1.94
187.65,1.91
189.52,1.89
191.42,1.85
193.33,1.80
195.27,1.75
197.22,1.69
199.19,1.63
201.18,1.58
203.19,1.53
205.23,1.47
207.28,1.42
209.35,1.37
211.44,1.32
213.56,1.27
215.69,1.22
217.85,1.17
220.03,1.12
222.23,1.08
224.45,1.03
226.70,0.98
228.96,0.94
231.25,0.89
233.57,0.85
235.90,0.80
238.26,0.76
240.64,0.71
243.05,0.67
245.48,0.62
247.93,0.58
250.41,0.54
252.92,0.49
255.45,0.45
258.00,0.41
260.58,0.37
263.19,0.33
265.82,0.29
268.48,0.25
271.16,0.21
273.87,0.17
276.61,0.13
279.38,0.09
282.17,0.05
284.99,0.01
287.84,-0.02
290.72,-0.06
293.63,-0.10
296.57,-0.13
299.53,-0.17
302.53,-0.20
305.55,-0.24
308.61,-0.27
311.69,-0.31
314.81,-0.34
317.96,-0.37
321.14,-0.40
324.35,-0.44
327.59,-0.47
330.87,-0.50
334.18,-0.53
337.52,-0.55
340.90,-0.58
344.30,-0.61
347.75,-0.64
351.23,-0.67
354.74,-0.69
358.28,-0.72
361.87,-0.75
365.49,-0.78
369.14,-0.80
372.83,-0.83
376.56,-0.86
380.33,-0.88
384.13,-0.91
387.97,-0.94
391.85,-0.96
395.77,-0.98
399.73,-1.01
403.72,-1.03
407.76,-1.05
411.84,-1.07
415.96,-1.09
420.12,-1.11
424.32,-1.13
428.56,-1.15
432.85,-1.17
437.18,-1.19
441.55,-1.21
445.96,-1.23
450.42,-1.25
454.93,-1.27
459.48,-1.29
464.07,-1.31
468.71,-1.33
473.40,-1.35
478.13,-1.36
482.91,-1.38
487.74,-1.40
492.62,-1.41
497.55,-1.42
502.52,-1.44
507.55,-1.45
512.62,-1.46
517.75,-1.47
522.93,-1.48
528.16,-1.50
533.44,-1.51
538.77,-1.52
544.16,-1.53
549.60,-1.54
555.10,-1.54
560.65,-1.55
566.25,-1.56
571.92,-1.56
577.64,-1.57
583.41,-1.57
589.25,-1.58
595.14,-1.58
601.09,-1.58
607.10,-1.58
613.17,-1.58
619.30,-1.58
625.50,-1.57
631.75,-1.57
638.07,-1.56
644.45,-1.56
650.89,-1.56
657.40,-1.57
663.98,-1.59
670.62,-1.60
677.32,-1.62
684.10,-1.63
690.94,-1.65
697.85,-1.66
704.83,-1.66
711.87,-1.67
718.99,-1.65
726.18,-1.64
733.44,-1.63
740.78,-1.62
748.19,-1.61
755.67,-1.60
763.23,-1.59
770.86,-1.58
778.57,-1.56
786.35,-1.53
794.22,-1.50
802.16,-1.47
810.18,-1.43
818.28,-1.40
826.46,-1.36
834.73,-1.31
843.08,-1.27
851.51,-1.22
860.02,-1.16
868.62,-1.11
877.31,-1.05
886.08,-0.99
894.94,-0.93
903.89,-0.86
912.93,-0.79
922.06,-0.72
931.28,-0.64
940.59,-0.56
950.00,-0.48
959.50,-0.39
969.09,-0.30
978.78,-0.21
988.57,-0.11
998.46,-0.02
1008.44,0.09
1018.53,0.20
1028.71,0.30
1039.00,0.41
1049.39,0.53
1059.88,0.64
1070.48,0.76
1081.19,0.88
1092.00,1.01
1102.92,1.13
1113.95,1.25
1125.09,1.37
1136.34,1.49
1147.70,1.62
1159.18,1.73
1170.77,1.85
1182.48,1.96
1194.30,2.06
1206.25,2.17
1218.31,2.27
1230.49,2.37
1242.80,2.46
1255.22,2.55
1267.78,2.63
1280.45,2.71
1293.26,2.78
1306.19,2.85
1319.25,2.93
1332.45,2.99
1345.77,3.06
1359.23,3.12
1372.82,3.18
1386.55,3.24
1400.41,3.30
1414.42,3.36
1428.56,3.42
1442.85,3.48
1457.28,3.54
1471.85,3.60
1486.57,3.66
1501.43,3.72
1516.45,3.78
1531.61,3.84
1546.93,3.90
1562.40,3.97
1578.02,4.03
1593.80,4.10
1609.74,4.17
1625.84,4.24
1642.10,4.30
1658.52,4.38
1675.10,4.45
1691.85,4.53
1708.77,4.60
1725.86,4.68
1743.12,4.76
1760.55,4.85
1778.15,4.94
1795.94,5.02
1813.90,5.11
1832.03,5.20
1850.36,5.29
1868.86,5.39
1887.55,5.48
1906.42,5.57
1925.49,5.66
1944.74,5.76
1964.19,5.85
1983.83,5.95
2003.67,6.04
2023.71,6.14
2043.94,6.24
2064.38,6.33
2085.03,6.43
2105.88,6.53
2126.94,6.62
2148.20,6.72
2169.69,6.82
2191.38,6.91
2213.30,7.01
2235.43,7.11
2257.78,7.20
2280.36,7.29
2303.17,7.38
2326.20,7.47
2349.46,7.56
2372.95,7.65
2396.68,7.73
2420.65,7.81
2444.86,7.89
2469.31,7.96
2494.00,8.04
2518.94,8.10
2544.13,8.16
2569.57,8.23
2595.27,8.28
2621.22,8.33
2647.43,8.38
2673.90,8.42
2700.64,8.46
2727.65,8.50
2754.93,8.52
2782.48,8.55
2810.30,8.57
2838.40,8.58
2866.79,8.59
2895.46,8.60
2924.41,8.60
2953.65,8.59
2983.19,8.59
3013.02,8.58
3043.15,8.57
3073.58,8.55
3104.32,8.53
3135.36,8.51
3166.72,8.50
3198.38,8.48
3230.37,8.47
3262.67,8.46
3295.30,8.46
3328.25,8.46
3361.53,8.46
3395.15,8.48
3429.10,8.49
3463.39,8.50
3498.03,8.52
3533.01,8.54
3568.34,8.55
3604.02,8.56
3640.06,8.57
3676.46,8.58
3713.22,8.59
3750.36,8.60
3787.86,8.61
3825.74,8.61
3864.00,8.61
3902.64,8.60
3941.66,8.58
3981.08,8.55
4020.89,8.52
4061.10,8.47
4101.71,8.42
4142.73,8.36
4184.15,8.28
4226.00,8.21
4268.26,8.13
4310.94,8.04
4354.05,7.95
4397.59,7.84
4441.56,7.72
4485.98,7.60
4530.84,7.47
4576.15,7.33
4621.91,7.19
4668.13,7.04
4714.81,6.89
4761.96,6.73
4809.58,6.55
4857.67,6.38
4906.25,6.19
4955.31,5.99
5004.87,5.79
5054.91,5.57
5105.46,5.34
5156.52,5.12
5208.08,4.90
5260.16,4.68
5312.77,4.47
5365.89,4.28
5419.55,4.09
5473.75,3.88
5528.49,3.67
5583.77,3.45
5639.61,3.23
5696.00,3.01
5752.96,2.80
5810.49,2.58
5868.60,2.39
5927.28,2.20
5986.56,2.01
6046.42,1.86
6106.89,1.71
6167.96,1.57
6229.64,1.46
6291.93,1.36
6354.85,1.29
6418.40,1.23
6482.58,1.17
6547.41,1.16
6612.88,1.16
6679.01,1.17
6745.80,1.21
6813.26,1.28
6881.39,1.36
6950.21,1.48
7019.71,1.63
7089.91,1.78
7160.81,2.01
7232.41,2.24
7304.74,2.48
7377.79,2.77
7451.56,3.06
7526.08,3.35
7601.34,3.62
7677.35,3.90
7754.13,4.17
7831.67,4.27
7909.98,4.38
7989.08,4.49
8068.98,4.35
8149.67,4.18
8231.16,4.00
8313.47,3.63
8396.61,3.20
8480.57,2.76
8565.38,2.23
8651.03,1.67
8737.54,1.10
8824.92,0.56
8913.17,0.02
9002.30,-0.52
9092.32,-0.97
9183.25,-1.41
9275.08,-1.83
9367.83,-2.19
9461.51,-2.56
9556.12,-2.90
9651.68,-3.23
9748.20,-3.57
9845.68,-3.87
9944.14,-4.16
10043.58,-4.43
10144.02,-4.67
10245.46,-4.90
10347.91,-5.08
10451.39,-5.20
10555.91,-5.32
10661.46,-5.37
10768.08,-5.35
10875.76,-5.34
10984.52,-5.21
11094.36,-5.04
11205.31,-4.86
11317.36,-4.50
11430.53,-4.13
11544.84,-3.67
11660.29,-3.07
11776.89,-2.46
11894.66,-1.61
12013.60,-0.71
12133.74,0.20
12255.08,1.11
12377.63,2.03
12501.41,2.94
12626.42,3.30
12752.68,3.66
12880.21,3.38
13009.01,2.72
13139.10,2.07
13270.49,1.08
13403.20,-0.18
13537.23,-1.45
13672.60,-2.63
13809.33,-3.75
13947.42,-4.87
14086.90,-5.71
14227.77,-6.38
14370.04,-7.05
14513.74,-7.67
14658.88,-7.87
14805.47,-8.06
14953.52,-8.25
15103.06,-8.21
15254.09,-8.08
15406.63,-7.95
15560.70,-7.81
15716.30,-7.68
15873.47,-7.55
16032.20,-7.49
16192.52,-7.74
16354.45,-7.99
16517.99,-8.27
16683.17,-8.92
16850.01,-9.56
17018.51,-10.21
17188.69,-11.01
17360.58,-11.81
17534.18,-12.62
17709.53,-13.45
17886.62,-14.28
18065.49,-15.12
18246.14,-15.96
18428.60,-16.80
18612.89,-17.67
18799.02,-18.56
18987.01,-19.45
19176.88,-20.50
19368.65,-21.57
19562.33,-22.57
19757.96,-23.43
19955.54,-24.30
