frequency,raw
20.00,6.45
20.20,6.48
20.40,6.51
20.61,6.54
20.81,6.57
21.02,6.60
21.23,6.63
21.44,6.66
21.66,6.68
21.87,6.71
22.09,6.73
22.31,6.75
22.54,6.77
22.76,6.78
22.99,6.79
23.22,6.81
23.45,6.82
23.69,6.84
23.92,6.86
24.16,6.87
24.40,6.89
24.65,6.90
24.89,6.92
25.14,6.93
25.39,6.94
25.65,6.95
25.91,6.96
26.16,6.97
26.43,6.98
26.69,6.99
26.96,7.00
27.23,7.01
27.50,7.01
27.77,7.02
28.05,7.03
28.33,7.03
28.62,7.03
28.90,7.04
29.19,7.04
29.48,7.04
29.78,7.04
30.08,7.04
30.38,7.03
30.68,7.03
30.99,7.03
31.30,7.03
31.61,7.03
31.93,7.02
32.24,7.02
32.57,7.01
32.89,7.00
33.22,7.00
33.55,6.99
33.89,6.98
34.23,6.97
34.57,6.96
34.92,6.95
35.27,6.94
35.62,6.93
35.97,6.92
36.33,6.91
36.70,6.89
37.06,6.88
37.43,6.86
37.81,6.85
38.19,6.83
38.57,6.81
38.95,6.79
39.34,6.77
39.74,6.75
40.14,6.73
40.54,6.72
40.94,6.70
41.35,6.68
41.76,6.66
42.18,6.64
42.60,6.62
43.03,6.59
43.46,6.57
43.90,6.55
44.33,6.52
44.78,6.49
45.23,6.47
45.68,6.44
46.13,6.41
46.60,6.38
47.06,6.35
47.53,6.32
48.01,6.29
48.49,6.26
48.97,6.23
49.46,6.20
49.96,6.17
50.46,6.14
50.96,6.10
51.47,6.07
51.99,6.03
52.51,6.00
53.03,5.97
53.56,5.93
54.10,5.90
54.64,5.86
55.18,5.82
55.74,5.79
56.29,5.75
56.86,5.71
57.42,5.67
58.00,5.63
58.58,5.59
59.16,5.55
59.76,5.50
60.35,5.46
60.96,5.43
61.57,5.39
62.18,5.34
62.80,5.30
63.43,5.26
64.07,5.21
64.71,5.17
65.35,5.13
66.01,5.09
66.67,5.04
67.33,4.99
68.01,4.94
68.69,4.88
69.37,4.84
70.07,4.81
70.77,4.78
71.48,4.75
72.19,4.71
72.91,4.67
73.64,4.62
74.38,4.55
75.12,4.49
75.87,4.43
76.63,4.36
77.40,4.30
78.17,4.25
78.95,4.20
79.74,4.16
80.54,4.11
81.35,4.07
82.16,4.02
82.98,3.97
83.81,3.91
84.65,3.85
85.50,3.79
86.35,3.75
87.22,3.71
88.09,3.66
88.97,3.62
89.86,3.59
90.76,3.52
91.66,3.46
92.58,3.40
93.51,3.34
94.44,3.29
95.39,3.23
96.34,3.17
97.30,3.11
98.28,3.05
99.26,3.00
100.25,2.94
101.25,2.88
102.27,2.83
103.29,2.78
104.32,2.72
105.37,2.67
106.42,2.61
107.48,2.56
108.56,2.50
109.64,2.44
110.74,2.39
111.85,2.33
112.97,2.27
114.10,2.22
115.24,2.16
116.39,2.11
117.55,2.05
118.73,1.99
119.92,1.94
121.12,1.88
122.33,1.82
123.55,1.77
124.79,1.71
126.03,1.65
127.29,1.60
128.57,1.54
129.85,1.48
131.15,1.43
132.46,1.37
133.79,1.32
135.12,1.26
136.48,1.20
137.84,1.15
139.22,1.09
140.61,1.04
142.02,0.98
143.44,0.93
144.87,0.87
146.32,0.82
147.78,0.76
149.26,0.71
150.75,0.65
152.26,0.60
153.78,0.54
155.32,0.49
156.88,0.44
158.44,0.38
160.03,0.33
161.63,0.27
163.24,0.22
164.88,0.17
166.53,0.11
168.19,0.06
169.87,0.01
171.57,-0.04
173.29,-0.10
175.02,-0.15
176.77,-0.20
178.54,-0.25
180.32,-0.30
182.13,-0.35
183.95,-0.41
185.79,-0.46
187.65,-0.51
189.52,-0.56
191.42,-0.61
193.33,-0.66
195.27,-0.71
197.22,-0.76
199.19,-0.81
201.18,-0.86
203.19,-0.91
205.23,-0.96
207.28,-1.00
209.35,-1.05
211.44,-1.09
213.56,-1.13
215.69,-1.17
217.85,-1.20
220.03,-1.23
222.23,-1.26
224.45,-1.29
226.70,-1.32
228.96,-1.35
231.25,-1.37
233.57,-1.40
235.90,-1.43
238.26,-1.46
240.64,-1.50
243.05,-1.53
245.48,-1.57
247.93,-1.61
250.41,-1.64
252.92,-1.68
255.45,-1.71
258.00,-1.75
260.58,-1.79
263.19,-1.82
265.82,-1.86
268.48,-1.89
271.16,-1.93
273.87,-1.96
276.61,-2.00
279.38,-2.03
282.17,-2.06
284.99,-2.09
287.84,-2.13
290.72,-2.16
293.63,-2.19
296.57,-2.22
299.53,-2.25
302.53,-2.27
305.55,-2.30
308.61,-2.33
311.69,-2.35
314.81,-2.38
317.96,-2.40
321.14,-2.43
324.35,-2.45
327.59,-2.48
330.87,-2.50
334.18,-2.52
337.52,-2.54
340.90,-2.56
344.30,-2.59
347.75,-2.60
351.23,-2.62
354.74,-2.64
358.28,-2.66
361.87,-2.68
365.49,-2.69
369.14,-2.71
372.83,-2.73
376.56,-2.74
380.33,-2.75
384.13,-2.77
387.97,-2.78
391.85,-2.79
395.77,-2.81
399.73,-2.82
403.72,-2.83
407.76,-2.84
411.84,-2.85
415.96,-2.86
420.12,-2.87
424.32,-2.88
428.56,-2.89
432.85,-2.89
437.18,-2.90
441.55,-2.91
445.96,-2.91
450.42,-2.92
454.93,-2.92
459.48,-2.92
464.07,-2.93
468.71,-2.93
473.40,-2.93
478.13,-2.93
482.91,-2.93
487.74,-2.93
492.62,-2.92
497.55,-2.92
502.52,-2.92
507.55,-2.91
512.62,-2.91
517.75,-2.90
522.93,-2.90
528.16,-2.89
533.44,-2.88
538.77,-2.87
544.16,-2.86
549.60,-2.85
555.10,-2.83
560.65,-2.82
566.25,-2.80
571.92,-2.79
577.64,-2.77
583.41,-2.75
589.25,-2.73
595.14,-2.71
601.09,-2.69
607.10,-2.67
613.17,-2.65
619.30,-2.63
625.50,-2.60
631.75,-2.58
638.07,-2.56
644.45,-2.53
650.89,-2.51
657.40,-2.48
663.98,-2.46
670.62,-2.43
677.32,-2.40
684.10,-2.37
690.94,-2.34
697.85,-2.31
704.83,-2.28
711.87,-2.25
718.99,-2.21
726.18,-2.18
733.44,-2.14
740.78,-2.10
748.19,-2.06
755.67,-2.02
763.23,-1.97
770.86,-1.93
778.57,-1.88
786.35,-1.83
794.22,-1.78
802.16,-1.73
810.18,-1.67
818.28,-1.61
826.46,-1.56
834.73,-1.49
843.08,-1.43
851.51,-1.37
860.02,-1.30
868.62,-1.23
877.31,-1.16
886.08,-1.08
894.94,-1.01
903.89,-0.93
912.93,-0.85
922.06,-0.76
931.28,-0.68
940.59,-0.59
950.00,-0.50
959.50,-0.40
969.09,-0.31
978.78,-0.21
988.57,-0.12
998.46,-0.02
1008.44,0.09
1018.53,0.19
1028.71,0.30
1039.00,0.40
1049.39,0.51
1059.88,0.62
1070.48,0.73
1081.19,0.84
1092.00,0.95
1102.92,1.07
1113.95,1.18
1125.09,1.29
1136.34,1.40
1147.70,1.52
1159.18,1.63
1170.77,1.74
1182.48,1.86
1194.30,1.97
1206.25,2.08
1218.31,2.19
1230.49,2.30
1242.80,2.41
1255.22,2.52
1267.78,2.62
1280.45,2.73
1293.26,2.83
1306.19,2.93
1319.25,3.04
1332.45,3.13
1345.77,3.23
1359.23,3.33
1372.82,3.42
1386.55,3.51
1400.41,3.60
1414.42,3.69
1428.56,3.78
1442.85,3.87
1457.28,3.95
1471.85,4.04
1486.57,4.12
1501.43,4.21
1516.45,4.29
1531.61,4.38
1546.93,4.46
1562.40,4.55
1578.02,4.63
1593.80,4.71
1609.74,4.80
1625.84,4.88
1642.10,4.97
1658.52,5.05
1675.10,5.14
1691.85,5.22
1708.77,5.31
1725.86,5.40
1743.12,5.48
1760.55,5.57
1778.15,5.66
1795.94,5.75
1813.90,5.84
1832.03,5.93
1850.36,6.01
1868.86,6.10
1887.55,6.19
1906.42,6.28
1925.49,6.37
1944.74,6.46
1964.19,6.55
1983.83,6.64
2003.67,6.73
2023.71,6.82
2043.94,6.91
2064.38,7.00
2085.03,7.08
2105.88,7.17
2126.94,7.25
2148.20,7.34
2169.69,7.42
2191.38,7.50
2213.30,7.57
2235.43,7.65
2257.78,7.72
2280.36,7.79
2303.17,7.86
2326.20,7.92
2349.46,7.98
2372.95,8.04
2396.68,8.09
2420.65,8.14
2444.86,8.18
2469.31,8.22
2494.00,8.26
2518.94,8.28
2544.13,8.31
2569.57,8.33
2595.27,8.35
2621.22,8.35
2647.43,8.36
2673.90,8.36
2700.64,8.36
2727.65,8.35
2754.93,8.33
2782.48,8.31
2810.30,8.29
2838.40,8.26
2866.79,8.23
2895.46,8.19
2924.41,8.15
2953.65,8.11
2983.19,8.06
3013.02,8.01
3043.15,7.96
3073.58,7.91
3104.32,7.85
3135.36,7.79
3166.72,7.73
3198.38,7.67
3230.37,7.61
3262.67,7.54
3295.30,7.48
3328.25,7.41
3361.53,7.35
3395.15,7.28
3429.10,7.21
3463.39,7.14
3498.03,7.08
3533.01,7.01
3568.34,6.94
3604.02,6.88
3640.06,6.81
3676.46,6.74
3713.22,6.68
3750.36,6.61
3787.86,6.55
3825.74,6.48
3864.00,6.42
3902.64,6.36
3941.66,6.31
3981.08,6.26
4020.89,6.23
4061.10,6.21
4101.71,6.20
4142.73,6.21
4184.15,6.23
4226.00,6.26
4268.26,6.29
4310.94,6.30
4354.05,6.32
4397.59,6.30
4441.56,6.26
4485.98,6.23
4530.84,6.17
4576.15,6.11
4621.91,6.05
4668.13,5.97
4714.81,5.88
4761.96,5.78
4809.58,5.67
4857.67,5.56
4906.25,5.45
4955.31,5.33
5004.87,5.22
5054.91,5.11
5105.46,5.00
5156.52,4.90
5208.08,4.82
5260.16,4.73
5312.77,4.66
5365.89,4.62
5419.55,4.58
5473.75,4.55
5528.49,4.55
5583.77,4.55
5639.61,4.58
5696.00,4.62
5752.96,4.66
5810.49,4.70
5868.60,4.75
5927.28,4.81
5986.56,4.86
6046.42,4.90
6106.89,4.93
6167.96,4.96
6229.64,4.97
6291.93,4.98
6354.85,4.97
6418.40,4.96
6482.58,4.95
6547.41,4.94
6612.88,4.94
6679.01,4.93
6745.80,4.95
6813.26,4.99
6881.39,5.02
6950.21,5.11
7019.71,5.21
7089.91,5.31
7160.81,5.49
7232.41,5.69
7304.74,5.89
7377.79,6.16
7451.56,6.43
7526.08,6.71
7601.34,7.00
7677.35,7.30
7754.13,7.59
7831.67,7.74
7909.98,7.89
7989.08,8.04
8068.98,7.91
8149.67,7.72
8231.16,7.54
8313.47,7.09
8396.61,6.56
8480.57,6.03
8565.38,5.36
8651.03,4.65
8737.54,3.94
8824.92,3.22
8913.17,2.51
9002.30,1.80
9092.32,1.18
9183.25,0.56
9275.08,-0.02
9367.83,-0.51
9461.51,-0.99
9556.12,-1.40
9651.68,-1.74
9748.20,-2.09
9845.68,-2.31
9944.14,-2.52
10043.58,-2.68
10144.02,-2.76
10245.46,-2.83
10347.91,-2.85
10451.39,-2.79
10555.91,-2.73
10661.46,-2.60
10768.08,-2.43
10875.76,-2.26
10984.52,-2.04
11094.36,-1.81
11205.31,-1.57
11317.36,-1.37
11430.53,-1.16
11544.84,-0.98
11660.29,-0.84
11776.89,-0.69
11894.66,-0.56
12013.60,-0.43
12133.74,-0.31
12255.08,-0.15
12377.63,0.04
12501.41,0.22
12626.42,0.50
12752.68,0.78
12880.21,1.10
13009.01,1.45
13139.10,1.81
13270.49,2.15
13403.20,2.48
13537.23,2.81
13672.60,3.09
13809.33,3.32
13947.42,3.55
14086.90,3.72
14227.77,3.84
14370.04,3.96
14513.74,4.06
14658.88,3.93
14805.47,3.79
14953.52,3.65
15103.06,3.15
15254.09,2.48
15406.63,1.82
15560.70,0.98
15716.30,-0.11
15873.47,-1.21
16032.20,-2.31
16192.52,-3.44
16354.45,-4.58
16517.99,-5.66
16683.17,-6.27
16850.01,-6.89
17018.51,-7.43
17188.69,-7.38
17360.58,-7.33
17534.18,-7.18
17709.53,-6.66
17886.62,-6.14
18065.49,-5.63
18246.14,-5.11
18428.60,-4.59
18612.89,-4.21
18799.02,-3.92
18987.01,-3.63
19176.88,-3.67
19368.65,-3.74
19562.33,-3.91
19757.96,-4.31
19955.54,-4.71
