frequency,raw
20.00,13.04
20.20,13.07
20.40,13.10
20.61,13.13
20.81,13.15
21.02,13.18
21.23,13.21
21.44,13.23
21.66,13.26
21.87,13.29
22.09,13.32
22.31,13.35
22.54,13.38
22.76,13.41
22.99,13.44
23.22,13.47
23.45,13.49
23.69,13.52
23.92,13.55
24.16,13.57
24.40,13.59
24.65,13.61
24.89,13.63
25.14,13.65
25.39,13.67
25.65,13.68
25.91,13.70
26.16,13.71
26.43,13.72
26.69,13.73
26.96,13.74
27.23,13.76
27.50,13.77
27.77,13.78
28.05,13.80
28.33,13.81
28.62,13.83
28.90,13.85
29.19,13.86
29.48,13.87
29.78,13.88
30.08,13.89
30.38,13.89
30.68,13.89
30.99,13.89
31.30,13.90
31.61,13.90
31.93,13.91
32.24,13.91
32.57,13.92
32.89,13.92
33.22,13.92
33.55,13.93
33.89,13.92
34.23,13.92
34.57,13.92
34.92,13.91
35.27,13.91
35.62,13.91
35.97,13.90
36.33,13.90
36.70,13.90
37.06,13.89
37.43,13.89
37.81,13.88
38.19,13.87
38.57,13.86
38.95,13.85
39.34,13.84
39.74,13.83
40.14,13.82
40.54,13.81
40.94,13.80
41.35,13.78
41.76,13.77
42.18,13.76
42.60,13.75
43.03,13.73
43.46,13.72
43.90,13.70
44.33,13.68
44.78,13.66
45.23,13.64
45.68,13.62
46.13,13.60
46.60,13.59
47.06,13.57
47.53,13.55
48.01,13.52
48.49,13.50
48.97,13.48
49.46,13.45
49.96,13.43
50.46,13.40
50.96,13.38
51.47,13.36
51.99,13.33
52.51,13.31
53.03,13.28
53.56,13.25
54.10,13.23
54.64,13.20
55.18,13.17
55.74,13.15
56.29,13.12
56.86,13.08
57.42,13.05
58.00,13.02
58.58,12.99
59.16,12.95
59.76,12.92
60.35,12.89
60.96,12.85
61.57,12.81
62.18,12.78
62.80,12.74
63.43,12.71
64.07,12.67
64.71,12.63
65.35,12.60
66.01,12.56
66.67,12.52
67.33,12.48
68.01,12.45
68.69,12.41
69.37,12.37
70.07,12.33
70.77,12.28
71.48,12.24
72.19,12.20
72.91,12.16
73.64,12.11
74.38,12.07
75.12,12.02
75.87,11.98
76.63,11.93
77.40,11.89
78.17,11.84
78.95,11.80
79.74,11.75
80.54,11.71
81.35,11.66
82.16,11.61
82.98,11.56
83.81,11.52
84.65,11.47
85.50,11.42
86.35,11.37
87.22,11.32
88.09,11.27
88.97,11.22
89.86,11.17
90.76,11.12
91.66,11.07
92.58,11.02
93.51,10.97
94.44,10.92
95.39,10.86
96.34,10.81
97.30,10.76
98.28,10.70
99.26,10.65
100.25,10.60
101.25,10.54
102.27,10.49
103.29,10.44
104.32,10.38
105.37,10.33
106.42,10.27
107.48,10.21
108.56,10.16
109.64,10.10
110.74,10.04
111.85,9.99
112.97,9.93
114.10,9.87
115.24,9.81
116.39,9.75
117.55,9.70
118.73,9.64
119.92,9.58
121.12,9.52
122.33,9.46
123.55,9.40
124.79,9.34
126.03,9.28
127.29,9.22
128.57,9.16
129.85,9.09
131.15,9.03
132.46,8.97
133.79,8.91
135.12,8.85
136.48,8.79
137.84,8.72
139.22,8.66
140.61,8.60
142.02,8.54
143.44,8.47
144.87,8.41
146.32,8.34
147.78,8.28
149.26,8.22
150.75,8.15
152.26,8.09
153.78,8.02
155.32,7.96
156.88,7.89
158.44,7.83
160.03,7.76
161.63,7.69
163.24,7.62
164.88,7.56
166.53,7.49
168.19,7.42
169.87,7.35
171.57,7.28
173.29,7.21
175.02,7.14
176.77,7.06
178.54,6.99
180.32,6.92
182.13,6.86
183.95,6.79
185.79,6.73
187.65,6.68
189.52,6.62
191.42,6.58
193.33,6.53
195.27,6.49
197.22,6.44
199.19,6.39
201.18,6.34
203.19,6.29
205.23,6.24
207.28,6.19
209.35,6.13
211.44,6.08
213.56,6.02
215.69,5.96
217.85,5.90
220.03,5.83
222.23,5.77
224.45,5.71
226.70,5.64
228.96,5.58
231.25,5.51
233.57,5.45
235.90,5.39
238.26,5.32
240.64,5.26
243.05,5.19
245.48,5.13
247.93,5.06
250.41,5.00
252.92,4.93
255.45,4.86
258.00,4.80
260.58,4.73
263.19,4.66
265.82,4.60
268.48,4.53
271.16,4.46
273.87,4.40
276.61,4.33
279.38,4.27
282.17,4.20
284.99,4.13
287.84,4.07
290.72,4.00
293.63,3.94
296.57,3.87
299.53,3.81
302.53,3.74
305.55,3.68
308.61,3.62
311.69,3.55
314.81,3.49
317.96,3.43
321.14,3.37
324.35,3.31
327.59,3.26
330.87,3.20
334.18,3.14
337.52,3.09
340.90,3.03
344.30,2.97
347.75,2.91
351.23,2.86
354.74,2.80
358.28,2.74
361.87,2.68
365.49,2.62
369.14,2.56
372.83,2.50
376.56,2.45
380.33,2.39
384.13,2.33
387.97,2.27
391.85,2.21
395.77,2.16
399.73,2.10
403.72,2.04
407.76,1.99
411.84,1.93
415.96,1.88
420.12,1.82
424.32,1.77
428.56,1.71
432.85,1.66
437.18,1.60
441.55,1.55
445.96,1.50
450.42,1.45
454.93,1.39
459.48,1.34
464.07,1.29
468.71,1.24
473.40,1.19
478.13,1.14
482.91,1.09
487.74,1.05
492.62,1.00
497.55,0.95
502.52,0.90
507.55,0.86
512.62,0.81
517.75,0.77
522.93,0.72
528.16,0.68
533.44,0.63
538.77,0.59
544.16,0.54
549.60,0.50
555.10,0.46
560.65,0.42
566.25,0.38
571.92,0.34
577.64,0.30
583.41,0.26
589.25,0.22
595.14,0.18
601.09,0.14
607.10,0.11
613.17,0.07
619.30,0.03
625.50,-0.00
631.75,-0.03
638.07,-0.07
644.45,-0.10
650.89,-0.13
657.40,-0.16
663.98,-0.19
670.62,-0.22
677.32,-0.25
684.10,-0.27
690.94,-0.30
697.85,-0.32
704.83,-0.35
711.87,-0.37
718.99,-0.39
726.18,-0.41
733.44,-0.43
740.78,-0.44
748.19,-0.46
755.67,-0.47
763.23,-0.48
770.86,-0.50
778.57,-0.51
786.35,-0.51
794.22,-0.52
802.16,-0.52
810.18,-0.52
818.28,-0.52
826.46,-0.52
834.73,-0.52
843.08,-0.51
851.51,-0.51
860.02,-0.50
868.62,-0.49
877.31,-0.48
886.08,-0.46
894.94,-0.45
903.89,-0.43
912.93,-0.41
922.06,-0.39
931.28,-0.36
940.59,-0.32
950.00,-0.28
959.50,-0.23
969.09,-0.18
978.78,-0.13
988.57,-0.07
998.46,-0.01
1008.44,0.06
1018.53,0.12
1028.71,0.19
1039.00,0.27
1049.39,0.35
1059.88,0.43
1070.48,0.52
1081.19,0.62
1092.00,0.72
1102.92,0.83
1113.95,0.94
1125.09,1.06
1136.34,1.19
1147.70,1.32
1159.18,1.45
1170.77,1.58
1182.48,1.70
1194.30,1.79
1206.25,1.88
1218.31,1.98
1230.49,2.00
1242.80,2.01
1255.22,2.00
1267.78,1.95
1280.45,1.90
1293.26,1.87
1306.19,1.84
1319.25,1.81
1332.45,1.86
1345.77,1.91
1359.23,1.96
1372.82,2.05
1386.55,2.14
1400.41,2.23
1414.42,2.32
1428.56,2.42
1442.85,2.51
1457.28,2.60
1471.85,2.68
1486.57,2.77
1501.43,2.85
1516.45,2.93
1531.61,3.00
1546.93,3.08
1562.40,3.15
1578.02,3.22
1593.80,3.29
1609.74,3.36
1625.84,3.43
1642.10,3.51
1658.52,3.58
1675.10,3.65
1691.85,3.72
1708.77,3.79
1725.86,3.87
1743.12,3.94
1760.55,4.02
1778.15,4.10
1795.94,4.18
1813.90,4.26
1832.03,4.34
1850.36,4.42
1868.86,4.51
1887.55,4.60
1906.42,4.68
1925.49,4.78
1944.74,4.87
1964.19,4.96
1983.83,5.06
2003.67,5.15
2023.71,5.25
2043.94,5.35
2064.38,5.46
2085.03,5.56
2105.88,5.67
2126.94,5.78
2148.20,5.89
2169.69,6.00
2191.38,6.11
2213.30,6.22
2235.43,6.34
2257.78,6.45
2280.36,6.57
2303.17,6.68
2326.20,6.80
2349.46,6.91
2372.95,7.03
2396.68,7.14
2420.65,7.26
2444.86,7.37
2469.31,7.49
2494.00,7.60
2518.94,7.72
2544.13,7.83
2569.57,7.94
2595.27,8.05
2621.22,8.15
2647.43,8.26
2673.90,8.36
2700.64,8.46
2727.65,8.56
2754.93,8.65
2782.48,8.74
2810.30,8.83
2838.40,8.91
2866.79,8.99
2895.46,9.06
2924.41,9.13
2953.65,9.20
2983.19,9.27
3013.02,9.33
3043.15,9.39
3073.58,9.44
3104.32,9.49
3135.36,9.54
3166.72,9.60
3198.38,9.65
3230.37,9.70
3262.67,9.75
3295.30,9.81
3328.25,9.87
3361.53,9.93
3395.15,9.99
3429.10,10.05
3463.39,10.11
3498.03,10.17
3533.01,10.23
3568.34,10.29
3604.02,10.35
3640.06,10.40
3676.46,10.47
3713.22,10.54
3750.36,10.60
3787.86,10.68
3825.74,10.76
3864.00,10.84
3902.64,10.92
3941.66,11.00
3981.08,11.09
4020.89,11.18
4061.10,11.27
4101.71,11.37
4142.73,11.47
4184.15,11.57
4226.00,11.68
4268.26,11.79
4310.94,11.89
4354.05,12.00
4397.59,12.10
4441.56,12.19
4485.98,12.27
4530.84,12.33
4576.15,12.38
4621.91,12.42
4668.13,12.39
4714.81,12.37
4761.96,12.32
4809.58,12.20
4857.67,12.08
4906.25,11.91
4955.31,11.72
5004.87,11.52
5054.91,11.31
5105.46,11.10
5156.52,10.89
5208.08,10.63
5260.16,10.38
5312.77,10.11
5365.89,9.79
5419.55,9.47
5473.75,9.13
5528.49,8.79
5583.77,8.45
5639.61,8.12
5696.00,7.79
5752.96,7.46
5810.49,7.14
5868.60,6.86
5927.28,6.57
5986.56,6.28
6046.42,6.02
6106.89,5.78
6167.96,5.55
6229.64,5.35
6291.93,5.15
6354.85,5.04
6418.40,4.94
6482.58,4.84
6547.41,4.87
6612.88,4.96
6679.01,5.04
6745.80,5.23
6813.26,5.46
6881.39,5.70
6950.21,5.96
7019.71,6.22
7089.91,6.48
7160.81,6.75
7232.41,7.02
7304.74,7.30
7377.79,7.63
7451.56,7.96
7526.08,8.31
7601.34,8.69
7677.35,9.06
7754.13,9.43
7831.67,9.69
7909.98,9.95
7989.08,10.21
8068.98,10.15
8149.67,10.03
8231.16,9.92
8313.47,9.47
8396.61,8.91
8480.57,8.36
8565.38,7.60
8651.03,6.79
8737.54,5.97
8824.92,5.12
8913.17,4.27
9002.30,3.42
9092.32,2.67
9183.25,1.91
9275.08,1.19
9367.83,0.56
9461.51,-0.06
9556.12,-0.62
9651.68,-1.13
9748.20,-1.63
9845.68,-2.03
9944.14,-2.42
10043.58,-2.77
10144.02,-3.05
10245.46,-3.33
10347.91,-3.56
10451.39,-3.72
10555.91,-3.87
10661.46,-3.96
10768.08,-4.00
10875.76,-4.03
10984.52,-3.97
11094.36,-3.87
11205.31,-3.76
11317.36,-3.51
11430.53,-3.26
11544.84,-2.94
11660.29,-2.51
11776.89,-2.08
11894.66,-1.44
12013.60,-0.75
12133.74,-0.05
12255.08,0.77
12377.63,1.74
12501.41,2.71
12626.42,3.71
12752.68,4.70
12880.21,5.35
13009.01,5.78
13139.10,6.21
13270.49,6.05
13403.20,5.37
13537.23,4.69
13672.60,3.69
13809.33,2.40
13947.42,1.12
14086.90,-0.01
14227.77,-1.05
14370.04,-2.10
14513.74,-3.08
14658.88,-3.53
14805.47,-3.99
14953.52,-4.44
15103.06,-4.59
15254.09,-4.61
15406.63,-4.63
15560.70,-4.55
15716.30,-4.32
15873.47,-4.08
16032.20,-3.84
16192.52,-3.59
16354.45,-3.33
16517.99,-3.10
16683.17,-3.04
16850.01,-2.98
17018.51,-2.95
17188.69,-3.14
17360.58,-3.33
17534.18,-3.53
17709.53,-3.81
17886.62,-4.09
18065.49,-4.35
18246.14,-4.58
18428.60,-4.81
18612.89,-5.08
18799.02,-5.39
18987.01,-5.69
19176.88,-6.29
19368.65,-6.92
19562.33,-7.57
19757.96,-8.26
19955.54,-8.95
