frequency,raw
20.00,7.79
20.20,7.82
20.40,7.84
20.61,7.87
20.81,7.89
21.02,7.91
21.23,7.94
21.44,7.96
21.66,7.98
21.87,8.00
22.09,8.02
22.31,8.04
22.54,8.06
22.76,8.08
22.99,8.09
23.22,8.11
23.45,8.12
23.69,8.13
23.92,8.15
24.16,8.16
24.40,8.17
24.65,8.18
24.89,8.19
25.14,8.20
25.39,8.21
25.65,8.21
25.91,8.22
26.16,8.22
26.43,8.23
26.69,8.23
26.96,8.24
27.23,8.24
27.50,8.24
27.77,8.25
28.05,8.25
28.33,8.25
28.62,8.24
28.90,8.24
29.19,8.24
29.48,8.24
29.78,8.23
30.08,8.23
30.38,8.22
30.68,8.21
30.99,8.21
31.30,8.20
31.61,8.19
31.93,8.18
32.24,8.17
32.57,8.16
32.89,8.15
33.22,8.14
33.55,8.13
33.89,8.11
34.23,8.10
34.57,8.09
34.92,8.07
35.27,8.06
35.62,8.04
35.97,8.02
36.33,8.01
36.70,7.99
37.06,7.97
37.43,7.95
37.81,7.93
38.19,7.91
38.57,7.89
38.95,7.86
39.34,7.84
39.74,7.82
40.14,7.79
40.54,7.77
40.94,7.74
41.35,7.72
41.76,7.69
42.18,7.66
42.60,7.64
43.03,7.61
43.46,7.58
43.90,7.55
44.33,7.52
44.78,7.49
45.23,7.46
45.68,7.43
46.13,7.40
46.60,7.37
47.06,7.34
47.53,7.31
48.01,7.27
48.49,7.24
48.97,7.21
49.46,7.17
49.96,7.14
50.46,7.10
50.96,7.06
51.47,7.02
51.99,6.99
52.51,6.95
53.03,6.91
53.56,6.87
54.10,6.83
54.64,6.80
55.18,6.76
55.74,6.72
56.29,6.68
56.86,6.64
57.42,6.59
58.00,6.55
58.58,6.51
59.16,6.47
59.76,6.43
60.35,6.38
60.96,6.34
61.57,6.30
62.18,6.26
62.80,6.21
63.43,6.17
64.07,6.13
64.71,6.08
65.35,6.04
66.01,5.99
66.67,5.95
67.33,5.90
68.01,5.86
68.69,5.81
69.37,5.76
70.07,5.72
70.77,5.67
71.48,5.62
72.19,5.58
72.91,5.53
73.64,5.48
74.38,5.43
75.12,5.39
75.87,5.34
76.63,5.29
77.40,5.24
78.17,5.19
78.95,5.14
79.74,5.09
80.54,5.04
81.35,4.99
82.16,4.94
82.98,4.89
83.81,4.84
84.65,4.79
85.50,4.75
86.35,4.70
87.22,4.65
88.09,4.60
88.97,4.55
89.86,4.50
90.76,4.45
91.66,4.40
92.58,4.35
93.51,4.30
94.44,4.25
95.39,4.20
96.34,4.15
97.30,4.10
98.28,4.05
99.26,4.00
100.25,3.95
101.25,3.90
102.27,3.85
103.29,3.81
104.32,3.76
105.37,3.71
106.42,3.66
107.48,3.61
108.56,3.56
109.64,3.51
110.74,3.47
111.85,3.42
112.97,3.37
114.10,3.32
115.24,3.28
116.39,3.23
117.55,3.19
118.73,3.14
119.92,3.10
121.12,3.05
122.33,3.01
123.55,2.96
124.79,2.92
126.03,2.88
127.29,2.84
128.57,2.80
129.85,2.76
131.15,2.73
132.46,2.69
133.79,2.66
135.12,2.63
136.48,2.60
137.84,2.57
139.22,2.55
140.61,2.53
142.02,2.52
143.44,2.51
144.87,2.50
146.32,2.51
147.78,2.52
149.26,2.53
150.75,2.57
152.26,2.62
153.78,2.67
155.32,2.74
156.88,2.88
158.44,3.02
160.03,3.16
161.63,3.50
163.24,3.84
164.88,4.17
166.53,4.82
168.19,5.50
169.87,6.18
171.57,6.75
173.29,7.30
175.02,7.85
176.77,7.35
178.54,6.85
180.32,6.13
182.13,4.38
183.95,2.64
185.79,0.75
187.65,-1.33
189.52,-3.41
191.42,-4.36
193.33,-4.93
195.27,-5.32
197.22,-4.62
199.19,-3.93
201.18,-3.29
203.19,-2.70
205.23,-2.11
207.28,-1.64
209.35,-1.25
211.44,-0.86
213.56,-0.58
215.69,-0.34
217.85,-0.10
220.03,0.05
222.23,0.19
224.45,0.32
226.70,0.38
228.96,0.45
231.25,0.47
233.57,0.45
235.90,0.44
238.26,0.36
240.64,0.28
243.05,0.20
245.48,0.10
247.93,0.00
250.41,-0.08
252.92,-0.11
255.45,-0.14
258.00,-0.16
260.58,-0.19
263.19,-0.21
265.82,-0.25
268.48,-0.31
271.16,-0.37
273.87,-0.43
276.61,-0.49
279.38,-0.55
282.17,-0.62
284.99,-0.68
287.84,-0.74
290.72,-0.80
293.63,-0.87
296.57,-0.93
299.53,-0.99
302.53,-1.05
305.55,-1.10
308.61,-1.13
311.69,-1.15
314.81,-1.17
317.96,-1.14
321.14,-1.11
324.35,-1.08
327.59,-1.04
330.87,-1.01
334.18,-0.97
337.52,-0.95
340.90,-0.94
344.30,-0.93
347.75,-0.93
351.23,-0.93
354.74,-0.94
358.28,-0.95
361.87,-0.96
365.49,-0.97
369.14,-0.98
372.83,-1.00
376.56,-1.01
380.33,-1.03
384.13,-1.05
387.97,-1.07
391.85,-1.09
395.77,-1.11
399.73,-1.13
403.72,-1.15
407.76,-1.17
411.84,-1.19
415.96,-1.21
420.12,-1.23
424.32,-1.25
428.56,-1.26
432.85,-1.28
437.18,-1.30
441.55,-1.32
445.96,-1.33
450.42,-1.35
454.93,-1.36
459.48,-1.38
464.07,-1.39
468.71,-1.41
473.40,-1.42
478.13,-1.43
482.91,-1.45
487.74,-1.46
492.62,-1.47
497.55,-1.48
502.52,-1.49
507.55,-1.50
512.62,-1.51
517.75,-1.52
522.93,-1.53
528.16,-1.54
533.44,-1.55
538.77,-1.55
544.16,-1.56
549.60,-1.57
555.10,-1.57
560.65,-1.58
566.25,-1.59
571.92,-1.59
577.64,-1.60
583.41,-1.60
589.25,-1.61
595.14,-1.61
601.09,-1.62
607.10,-1.62
613.17,-1.63
619.30,-1.63
625.50,-1.63
631.75,-1.63
638.07,-1.63
644.45,-1.63
650.89,-1.63
657.40,-1.63
663.98,-1.62
670.62,-1.62
677.32,-1.61
684.10,-1.60
690.94,-1.60
697.85,-1.59
704.83,-1.58
711.87,-1.57
718.99,-1.56
726.18,-1.55
733.44,-1.54
740.78,-1.52
748.19,-1.51
755.67,-1.49
763.23,-1.48
770.86,-1.46
778.57,-1.45
786.35,-1.42
794.22,-1.40
802.16,-1.37
810.18,-1.34
818.28,-1.31
826.46,-1.27
834.73,-1.23
843.08,-1.20
851.51,-1.16
860.02,-1.12
868.62,-1.08
877.31,-1.03
886.08,-0.97
894.94,-0.92
903.89,-0.84
912.93,-0.74
922.06,-0.63
931.28,-0.53
940.59,-0.44
950.00,-0.34
959.50,-0.27
969.09,-0.20
978.78,-0.13
988.57,-0.07
998.46,-0.01
1008.44,0.05
1018.53,0.10
1028.71,0.15
1039.00,0.21
1049.39,0.28
1059.88,0.35
1070.48,0.43
1081.19,0.52
1092.00,0.60
1102.92,0.69
1113.95,0.78
1125.09,0.87
1136.34,0.96
1147.70,1.04
1159.18,1.13
1170.77,1.22
1182.48,1.31
1194.30,1.40
1206.25,1.49
1218.31,1.58
1230.49,1.67
1242.80,1.77
1255.22,1.86
1267.78,1.95
1280.45,2.05
1293.26,2.14
1306.19,2.24
1319.25,2.34
1332.45,2.43
1345.77,2.52
1359.23,2.61
1372.82,2.69
1386.55,2.77
1400.41,2.85
1414.42,2.93
1428.56,3.00
1442.85,3.07
1457.28,3.14
1471.85,3.21
1486.57,3.28
1501.43,3.35
1516.45,3.42
1531.61,3.49
1546.93,3.55
1562.40,3.63
1578.02,3.70
1593.80,3.77
1609.74,3.84
1625.84,3.92
1642.10,3.99
1658.52,4.07
1675.10,4.15
1691.85,4.23
1708.77,4.31
1725.86,4.39
1743.12,4.47
1760.55,4.56
1778.15,4.65
1795.94,4.73
1813.90,4.82
1832.03,4.91
1850.36,5.00
1868.86,5.10
1887.55,5.19
1906.42,5.29
1925.49,5.38
1944.74,5.48
1964.19,5.58
1983.83,5.68
2003.67,5.78
2023.71,5.88
2043.94,5.98
2064.38,6.09
2085.03,6.19
2105.88,6.29
2126.94,6.40
2148.20,6.50
2169.69,6.61
2191.38,6.71
2213.30,6.82
2235.43,6.92
2257.78,7.03
2280.36,7.13
2303.17,7.23
2326.20,7.33
2349.46,7.44
2372.95,7.53
2396.68,7.63
2420.65,7.73
2444.86,7.82
2469.31,7.91
2494.00,8.00
2518.94,8.08
2544.13,8.17
2569.57,8.25
2595.27,8.32
2621.22,8.39
2647.43,8.46
2673.90,8.52
2700.64,8.58
2727.65,8.64
2754.93,8.68
2782.48,8.73
2810.30,8.77
2838.40,8.80
2866.79,8.84
2895.46,8.87
2924.41,8.89
2953.65,8.91
2983.19,8.92
3013.02,8.94
3043.15,8.94
3073.58,8.94
3104.32,8.94
3135.36,8.93
3166.72,8.92
3198.38,8.91
3230.37,8.90
3262.67,8.88
3295.30,8.85
3328.25,8.83
3361.53,8.80
3395.15,8.77
3429.10,8.74
3463.39,8.71
3498.03,8.67
3533.01,8.64
3568.34,8.60
3604.02,8.57
3640.06,8.53
3676.46,8.49
3713.22,8.46
3750.36,8.43
3787.86,8.39
3825.74,8.36
3864.00,8.33
3902.64,8.29
3941.66,8.26
3981.08,8.22
4020.89,8.17
4061.10,8.12
4101.71,8.07
4142.73,8.00
4184.15,7.93
4226.00,7.85
4268.26,7.77
4310.94,7.67
4354.05,7.57
4397.59,7.45
4441.56,7.32
4485.98,7.20
4530.84,7.06
4576.15,6.92
4621.91,6.78
4668.13,6.62
4714.81,6.46
4761.96,6.30
4809.58,6.13
4857.67,5.95
4906.25,5.75
4955.31,5.55
5004.87,5.34
5054.91,5.09
5105.46,4.84
5156.52,4.60
5208.08,4.39
5260.16,4.17
5312.77,4.00
5365.89,3.95
5419.55,3.90
5473.75,3.82
5528.49,3.70
5583.77,3.58
5639.61,3.42
5696.00,3.25
5752.96,3.07
5810.49,2.90
5868.60,2.75
5927.28,2.60
5986.56,2.44
6046.42,2.32
6106.89,2.20
6167.96,2.10
6229.64,2.02
6291.93,1.93
6354.85,1.89
6418.40,1.85
6482.58,1.81
6547.41,1.82
6612.88,1.84
6679.01,1.85
6745.80,1.92
6813.26,2.00
6881.39,2.08
6950.21,2.22
7019.71,2.38
7089.91,2.54
7160.81,2.77
7232.41,3.01
7304.74,3.25
7377.79,3.56
7451.56,3.88
7526.08,4.20
7601.34,4.55
7677.35,4.90
7754.13,5.25
7831.67,5.53
7909.98,5.81
7989.08,6.09
8068.98,6.14
8149.67,6.16
8231.16,6.18
8313.47,5.92
8396.61,5.58
8480.57,5.24
8565.38,4.73
8651.03,4.17
8737.54,3.62
8824.92,3.09
8913.17,2.56
9002.30,2.05
9092.32,1.71
9183.25,1.38
9275.08,1.08
9367.83,0.90
9461.51,0.72
9556.12,0.55
9651.68,0.39
9748.20,0.23
9845.68,0.03
9944.14,-0.16
10043.58,-0.36
10144.02,-0.56
10245.46,-0.77
10347.91,-0.93
10451.39,-1.05
10555.91,-1.17
10661.46,-1.20
10768.08,-1.17
10875.76,-1.13
10984.52,-0.97
11094.36,-0.76
11205.31,-0.55
11317.36,-0.22
11430.53,0.10
11544.84,0.42
11660.29,0.74
11776.89,1.05
11894.66,1.14
12013.60,1.18
12133.74,1.22
12255.08,1.06
12377.63,0.68
12501.41,0.29
12626.42,-0.38
12752.68,-1.06
12880.21,-1.80
13009.01,-2.58
13139.10,-3.36
13270.49,-4.08
13403.20,-4.76
13537.23,-5.44
13672.60,-5.99
13809.33,-6.44
13947.42,-6.89
14086.90,-7.18
14227.77,-7.37
14370.04,-7.56
14513.74,-7.73
14658.88,-7.75
14805.47,-7.76
14953.52,-7.78
15103.06,-7.87
15254.09,-8.00
15406.63,-8.13
15560.70,-8.42
15716.30,-8.96
15873.47,-9.50
16032.20,-10.11
16192.52,-11.01
16354.45,-11.90
16517.99,-12.80
16683.17,-13.75
16850.01,-14.71
17018.51,-15.64
17188.69,-16.38
17360.58,-17.12
17534.18,-17.78
17709.53,-18.08
17886.62,-18.39
18065.49,-18.60
18246.14,-18.64
18428.60,-18.67
18612.89,-18.76
18799.02,-18.88
18987.01,-18.99
19176.88,-19.39
19368.65,-19.80
19562.33,-20.20
19757.96,-20.56
19955.54,-20.93
