frequency,raw
20.00,6.63
20.20,6.67
20.40,6.71
20.61,6.75
20.81,6.79
21.02,6.84
21.23,6.88
21.44,6.93
21.66,6.97
21.87,7.02
22.09,7.07
22.31,7.11
22.54,7.15
22.76,7.19
22.99,7.23
23.22,7.27
23.45,7.31
23.69,7.34
23.92,7.38
24.16,7.41
24.40,7.45
24.65,7.48
24.89,7.51
25.14,7.55
25.39,7.58
25.65,7.61
25.91,7.64
26.16,7.66
26.43,7.69
26.69,7.72
26.96,7.75
27.23,7.77
27.50,7.79
27.77,7.82
28.05,7.84
28.33,7.86
28.62,7.88
28.90,7.90
29.19,7.92
29.48,7.93
29.78,7.95
30.08,7.97
30.38,7.99
30.68,8.00
30.99,8.02
31.30,8.03
31.61,8.04
31.93,8.05
32.24,8.06
32.57,8.08
32.89,8.09
33.22,8.09
33.55,8.10
33.89,8.11
34.23,8.12
34.57,8.12
34.92,8.12
35.27,8.13
35.62,8.13
35.97,8.13
36.33,8.13
36.70,8.13
37.06,8.13
37.43,8.13
37.81,8.13
38.19,8.13
38.57,8.13
38.95,8.13
39.34,8.12
39.74,8.12
40.14,8.12
40.54,8.11
40.94,8.10
41.35,8.10
41.76,8.09
42.18,8.08
42.60,8.07
43.03,8.06
43.46,8.05
43.90,8.03
44.33,8.02
44.78,8.01
45.23,8.00
45.68,7.98
46.13,7.97
46.60,7.95
47.06,7.93
47.53,7.92
48.01,7.90
48.49,7.89
48.97,7.87
49.46,7.85
49.96,7.83
50.46,7.81
50.96,7.79
51.47,7.77
51.99,7.74
52.51,7.72
53.03,7.70
53.56,7.67
54.10,7.65
54.64,7.62
55.18,7.60
55.74,7.57
56.29,7.55
56.86,7.52
57.42,7.50
58.00,7.47
58.58,7.44
59.16,7.41
59.76,7.38
60.35,7.35
60.96,7.32
61.57,7.29
62.18,7.26
62.80,7.23
63.43,7.19
64.07,7.16
64.71,7.13
65.35,7.09
66.01,7.06
66.67,7.02
67.33,6.98
68.01,6.95
68.69,6.91
69.37,6.88
70.07,6.84
70.77,6.81
71.48,6.77
72.19,6.73
72.91,6.70
73.64,6.66
74.38,6.62
75.12,6.58
75.87,6.54
76.63,6.50
77.40,6.46
78.17,6.42
78.95,6.38
79.74,6.34
80.54,6.29
81.35,6.25
82.16,6.21
82.98,6.16
83.81,6.12
84.65,6.08
85.50,6.03
86.35,5.99
87.22,5.94
88.09,5.90
88.97,5.85
89.86,5.81
90.76,5.76
91.66,5.71
92.58,5.67
93.51,5.62
94.44,5.57
95.39,5.53
96.34,5.48
97.30,5.43
98.28,5.38
99.26,5.33
100.25,5.28
101.25,5.24
102.27,5.19
103.29,5.14
104.32,5.09
105.37,5.04
106.42,4.99
107.48,4.94
108.56,4.89
109.64,4.84
110.74,4.79
111.85,4.74
112.97,4.70
114.10,4.65
115.24,4.60
116.39,4.55
117.55,4.51
118.73,4.46
119.92,4.41
121.12,4.36
122.33,4.31
123.55,4.26
124.79,4.21
126.03,4.16
127.29,4.11
128.57,4.06
129.85,4.01
131.15,3.96
132.46,3.90
133.79,3.85
135.12,3.80
136.48,3.75
137.84,3.70
139.22,3.65
140.61,3.59
142.02,3.54
143.44,3.49
144.87,3.44
146.32,3.39
147.78,3.34
149.26,3.29
150.75,3.23
152.26,3.18
153.78,3.13
155.32,3.08
156.88,3.03
158.44,2.98
160.03,2.93
161.63,2.87
163.24,2.82
164.88,2.77
166.53,2.72
168.19,2.67
169.87,2.62
171.57,2.57
173.29,2.52
175.02,2.46
176.77,2.41
178.54,2.36
180.32,2.31
182.13,2.26
183.95,2.21
185.79,2.16
187.65,2.11
189.52,2.06
191.42,2.01
193.33,1.96
195.27,1.91
197.22,1.86
199.19,1.82
201.18,1.77
203.19,1.73
205.23,1.69
207.28,1.65
209.35,1.61
211.44,1.57
213.56,1.53
215.69,1.48
217.85,1.44
220.03,1.40
222.23,1.35
224.45,1.31
226.70,1.27
228.96,1.22
231.25,1.18
233.57,1.13
235.90,1.09
238.26,1.05
240.64,1.01
243.05,0.96
245.48,0.92
247.93,0.88
250.41,0.84
252.92,0.80
255.45,0.76
258.00,0.72
260.58,0.68
263.19,0.64
265.82,0.60
268.48,0.55
271.16,0.51
273.87,0.47
276.61,0.43
279.38,0.39
282.17,0.35
284.99,0.32
287.84,0.28
290.72,0.24
293.63,0.21
296.57,0.18
299.53,0.14
302.53,0.11
305.55,0.08
308.61,0.05
311.69,0.02
314.81,-0.01
317.96,-0.05
321.14,-0.08
324.35,-0.12
327.59,-0.15
330.87,-0.18
334.18,-0.21
337.52,-0.24
340.90,-0.27
344.30,-0.30
347.75,-0.33
351.23,-0.36
354.74,-0.39
358.28,-0.42
361.87,-0.45
365.49,-0.48
369.14,-0.51
372.83,-0.54
376.56,-0.57
380.33,-0.59
384.13,-0.62
387.97,-0.65
391.85,-0.67
395.77,-0.70
399.73,-0.72
403.72,-0.75
407.76,-0.77
411.84,-0.79
415.96,-0.81
420.12,-0.84
424.32,-0.86
428.56,-0.88
432.85,-0.90
437.18,-0.92
441.55,-0.94
445.96,-0.96
450.42,-0.98
454.93,-1.00
459.48,-1.02
464.07,-1.04
468.71,-1.06
473.40,-1.07
478.13,-1.09
482.91,-1.11
487.74,-1.13
492.62,-1.14
497.55,-1.16
502.52,-1.17
507.55,-1.19
512.62,-1.20
517.75,-1.22
522.93,-1.23
528.16,-1.24
533.44,-1.25
538.77,-1.27
544.16,-1.28
549.60,-1.29
555.10,-1.30
560.65,-1.31
566.25,-1.32
571.92,-1.32
577.64,-1.33
583.41,-1.34
589.25,-1.35
595.14,-1.35
601.09,-1.36
607.10,-1.36
613.17,-1.37
619.30,-1.37
625.50,-1.37
631.75,-1.38
638.07,-1.38
644.45,-1.38
650.89,-1.38
657.40,-1.38
663.98,-1.37
670.62,-1.37
677.32,-1.37
684.10,-1.36
690.94,-1.36
697.85,-1.35
704.83,-1.34
711.87,-1.33
718.99,-1.32
726.18,-1.31
733.44,-1.30
740.78,-1.28
748.19,-1.27
755.67,-1.25
763.23,-1.23
770.86,-1.21
778.57,-1.19
786.35,-1.17
794.22,-1.14
802.16,-1.12
810.18,-1.09
818.28,-1.06
826.46,-1.02
834.73,-0.99
843.08,-0.95
851.51,-0.92
860.02,-0.87
868.62,-0.83
877.31,-0.79
886.08,-0.74
894.94,-0.69
903.89,-0.64
912.93,-0.59
922.06,-0.53
931.28,-0.48
940.59,-0.41
950.00,-0.35
959.50,-0.29
969.09,-0.22
978.78,-0.15
988.57,-0.08
998.46,-0.01
1008.44,0.06
1018.53,0.14
1028.71,0.21
1039.00,0.29
1049.39,0.37
1059.88,0.44
1070.48,0.51
1081.19,0.58
1092.00,0.65
1102.92,0.73
1113.95,0.81
1125.09,0.90
1136.34,1.00
1147.70,1.11
1159.18,1.22
1170.77,1.34
1182.48,1.45
1194.30,1.57
1206.25,1.69
1218.31,1.81
1230.49,1.93
1242.80,2.04
1255.22,2.14
1267.78,2.23
1280.45,2.31
1293.26,2.36
1306.19,2.42
1319.25,2.47
1332.45,2.53
1345.77,2.59
1359.23,2.65
1372.82,2.73
1386.55,2.80
1400.41,2.88
1414.42,2.97
1428.56,3.05
1442.85,3.13
1457.28,3.22
1471.85,3.30
1486.57,3.38
1501.43,3.47
1516.45,3.55
1531.61,3.63
1546.93,3.71
1562.40,3.80
1578.02,3.88
1593.80,3.97
1609.74,4.05
1625.84,4.14
1642.10,4.23
1658.52,4.32
1675.10,4.41
1691.85,4.50
1708.77,4.59
1725.86,4.68
1743.12,4.78
1760.55,4.87
1778.15,4.97
1795.94,5.07
1813.90,5.17
1832.03,5.27
1850.36,5.37
1868.86,5.48
1887.55,5.59
1906.42,5.70
1925.49,5.82
1944.74,5.95
1964.19,6.08
1983.83,6.21
2003.67,6.34
2023.71,6.47
2043.94,6.61
2064.38,6.74
2085.03,6.87
2105.88,6.99
2126.94,7.12
2148.20,7.24
2169.69,7.36
2191.38,7.48
2213.30,7.60
2235.43,7.71
2257.78,7.83
2280.36,7.94
2303.17,8.05
2326.20,8.16
2349.46,8.27
2372.95,8.37
2396.68,8.47
2420.65,8.57
2444.86,8.66
2469.31,8.75
2494.00,8.84
2518.94,8.91
2544.13,8.98
2569.57,9.06
2595.27,9.12
2621.22,9.18
2647.43,9.24
2673.90,9.29
2700.64,9.34
2727.65,9.38
2754.93,9.43
2782.48,9.47
2810.30,9.51
2838.40,9.54
2866.79,9.57
2895.46,9.60
2924.41,9.62
2953.65,9.63
2983.19,9.64
3013.02,9.65
3043.15,9.66
3073.58,9.67
3104.32,9.68
3135.36,9.69
3166.72,9.70
3198.38,9.72
3230.37,9.74
3262.67,9.76
3295.30,9.79
3328.25,9.82
3361.53,9.85
3395.15,9.90
3429.10,9.94
3463.39,9.99
3498.03,10.04
3533.01,10.09
3568.34,10.12
3604.02,10.14
3640.06,10.16
3676.46,10.15
3713.22,10.13
3750.36,10.10
3787.86,10.03
3825.74,9.96
3864.00,9.89
3902.64,9.80
3941.66,9.70
3981.08,9.60
4020.89,9.50
4061.10,9.40
4101.71,9.31
4142.73,9.22
4184.15,9.15
4226.00,9.08
4268.26,9.02
4310.94,8.97
4354.05,8.92
4397.59,8.87
4441.56,8.84
4485.98,8.80
4530.84,8.75
4576.15,8.70
4621.91,8.65
4668.13,8.57
4714.81,8.49
4761.96,8.39
4809.58,8.25
4857.67,8.11
4906.25,7.92
4955.31,7.71
5004.87,7.50
5054.91,7.22
5105.46,6.94
5156.52,6.65
5208.08,6.30
5260.16,5.95
5312.77,5.59
5365.89,5.18
5419.55,4.77
5473.75,4.35
5528.49,3.92
5583.77,3.48
5639.61,3.05
5696.00,2.63
5752.96,2.20
5810.49,1.78
5868.60,1.41
5927.28,1.03
5986.56,0.66
6046.42,0.38
6106.89,0.13
6167.96,-0.05
6229.64,-0.08
6291.93,-0.10
6354.85,0.15
6418.40,0.45
6482.58,0.74
6547.41,1.24
6612.88,1.81
6679.01,2.38
6745.80,3.02
6813.26,3.69
6881.39,4.35
6950.21,5.01
7019.71,5.65
7089.91,6.30
7160.81,6.89
7232.41,7.47
7304.74,8.05
7377.79,8.55
7451.56,9.05
7526.08,9.52
7601.34,9.93
7677.35,10.33
7754.13,10.73
7831.67,10.95
7909.98,11.17
7989.08,11.39
8068.98,11.35
8149.67,11.28
8231.16,11.21
8313.47,10.89
8396.61,10.51
8480.57,10.12
8565.38,9.59
8651.03,9.02
8737.54,8.45
8824.92,7.86
8913.17,7.26
9002.30,6.67
9092.32,6.17
9183.25,5.67
9275.08,5.20
9367.83,4.81
9461.51,4.43
9556.12,4.08
9651.68,3.76
9748.20,3.45
9845.68,3.16
9944.14,2.88
10043.58,2.61
10144.02,2.36
10245.46,2.12
10347.91,1.90
10451.39,1.71
10555.91,1.52
10661.46,1.38
10768.08,1.27
10875.76,1.16
10984.52,1.13
11094.36,1.12
11205.31,1.11
11317.36,1.21
11430.53,1.31
11544.84,1.46
11660.29,1.70
11776.89,1.94
11894.66,2.36
12013.60,2.83
12133.74,3.29
12255.08,3.90
12377.63,4.67
12501.41,5.45
12626.42,6.43
12752.68,7.42
12880.21,8.27
13009.01,9.06
13139.10,9.84
13270.49,10.12
13403.20,9.97
13537.23,9.82
13672.60,9.19
13809.33,8.13
13947.42,7.07
14086.90,5.92
14227.77,4.72
14370.04,3.52
14513.74,2.37
14658.88,1.69
14805.47,1.02
14953.52,0.34
15103.06,0.02
15254.09,-0.13
15406.63,-0.29
15560.70,-0.40
15716.30,-0.46
15873.47,-0.51
16032.20,-0.62
16192.52,-0.94
16354.45,-1.27
16517.99,-1.64
16683.17,-2.38
16850.01,-3.12
17018.51,-3.91
17188.69,-5.08
17360.58,-6.25
17534.18,-7.46
17709.53,-8.82
17886.62,-10.18
18065.49,-11.25
18246.14,-11.81
18428.60,-12.38
18612.89,-12.45
18799.02,-12.21
18987.01,-11.97
19176.88,-11.94
19368.65,-11.92
19562.33,-11.99
19757.96,-12.26
19955.54,-12.54
