frequency,raw
20.00,8.43
20.20,8.45
20.40,8.48
20.61,8.50
20.81,8.52
21.02,8.53
21.23,8.55
21.44,8.57
21.66,8.58
21.87,8.59
22.09,8.60
22.31,8.61
22.54,8.62
22.76,8.63
22.99,8.64
23.22,8.65
23.45,8.65
23.69,8.66
23.92,8.67
24.16,8.68
24.40,8.68
24.65,8.69
24.89,8.70
25.14,8.72
25.39,8.73
25.65,8.74
25.91,8.75
26.16,8.76
26.43,8.77
26.69,8.78
26.96,8.79
27.23,8.80
27.50,8.81
27.77,8.81
28.05,8.82
28.33,8.82
28.62,8.82
28.90,8.82
29.19,8.82
29.48,8.82
29.78,8.82
30.08,8.82
30.38,8.82
30.68,8.82
30.99,8.82
31.30,8.82
31.61,8.81
31.93,8.81
32.24,8.80
32.57,8.79
32.89,8.79
33.22,8.78
33.55,8.77
33.89,8.76
34.23,8.75
34.57,8.74
34.92,8.73
35.27,8.72
35.62,8.71
35.97,8.70
36.33,8.69
36.70,8.68
37.06,8.67
37.43,8.66
37.81,8.65
38.19,8.64
38.57,8.63
38.95,8.62
39.34,8.61
39.74,8.60
40.14,8.59
40.54,8.57
40.94,8.56
41.35,8.55
41.76,8.53
42.18,8.52
42.60,8.50
43.03,8.49
43.46,8.47
43.90,8.45
44.33,8.43
44.78,8.41
45.23,8.39
45.68,8.37
46.13,8.35
46.60,8.33
47.06,8.31
47.53,8.29
48.01,8.27
48.49,8.25
48.97,8.23
49.46,8.20
49.96,8.18
50.46,8.16
50.96,8.14
51.47,8.12
51.99,8.10
52.51,8.07
53.03,8.05
53.56,8.02
54.10,7.99
54.64,7.96
55.18,7.94
55.74,7.91
56.29,7.88
56.86,7.85
57.42,7.82
58.00,7.79
58.58,7.76
59.16,7.73
59.76,7.71
60.35,7.68
60.96,7.65
61.57,7.62
62.18,7.59
62.80,7.55
63.43,7.52
64.07,7.49
64.71,7.45
65.35,7.42
66.01,7.39
66.67,7.35
67.33,7.32
68.01,7.29
68.69,7.25
69.37,7.22
70.07,7.18
70.77,7.15
71.48,7.11
72.19,7.07
72.91,7.04
73.64,7.00
74.38,6.96
75.12,6.92
75.87,6.88
76.63,6.84
77.40,6.80
78.17,6.76
78.95,6.72
79.74,6.68
80.54,6.64
81.35,6.60
82.16,6.56
82.98,6.52
83.81,6.47
84.65,6.43
85.50,6.39
86.35,6.35
87.22,6.31
88.09,6.27
88.97,6.23
89.86,6.18
90.76,6.14
91.66,6.10
92.58,6.05
93.51,6.01
94.44,5.96
95.39,5.92
96.34,5.87
97.30,5.83
98.28,5.78
99.26,5.74
100.25,5.69
101.25,5.64
102.27,5.60
103.29,5.55
104.32,5.50
105.37,5.46
106.42,5.41
107.48,5.37
108.56,5.32
109.64,5.27
110.74,5.23
111.85,5.18
112.97,5.13
114.10,5.08
115.24,5.04
116.39,4.99
117.55,4.94
118.73,4.89
119.92,4.84
121.12,4.80
122.33,4.75
123.55,4.69
124.79,4.64
126.03,4.59
127.29,4.54
128.57,4.49
129.85,4.43
131.15,4.38
132.46,4.33
133.79,4.28
135.12,4.22
136.48,4.17
137.84,4.12
139.22,4.07
140.61,4.02
142.02,3.97
143.44,3.92
144.87,3.87
146.32,3.82
147.78,3.77
149.26,3.72
150.75,3.66
152.26,3.61
153.78,3.56
155.32,3.51
156.88,3.45
158.44,3.40
160.03,3.35
161.63,3.29
163.24,3.24
164.88,3.19
166.53,3.14
168.19,3.08
169.87,3.03
171.57,2.98
173.29,2.92
175.02,2.87
176.77,2.82
178.54,2.76
180.32,2.71
182.13,2.66
183.95,2.61
185.79,2.56
187.65,2.52
189.52,2.48
191.42,2.44
193.33,2.40
195.27,2.37
197.22,2.33
199.19,2.29
201.18,2.24
203.19,2.20
205.23,2.15
207.28,2.11
209.35,2.06
211.44,2.02
213.56,1.98
215.69,1.94
217.85,1.89
220.03,1.85
222.23,1.82
224.45,1.78
226.70,1.74
228.96,1.70
231.25,1.66
233.57,1.62
235.90,1.58
238.26,1.54
240.64,1.50
243.05,1.46
245.48,1.42
247.93,1.37
250.41,1.33
252.92,1.28
255.45,1.23
258.00,1.19
260.58,1.14
263.19,1.10
265.82,1.05
268.48,1.01
271.16,0.97
273.87,0.93
276.61,0.89
279.38,0.84
282.17,0.80
284.99,0.76
287.84,0.72
290.72,0.68
293.63,0.64
296.57,0.60
299.53,0.56
302.53,0.53
305.55,0.49
308.61,0.45
311.69,0.41
314.81,0.38
317.96,0.34
321.14,0.30
324.35,0.27
327.59,0.23
330.87,0.20
334.18,0.16
337.52,0.13
340.90,0.09
344.30,0.06
347.75,0.03
351.23,-0.01
354.74,-0.04
358.28,-0.07
361.87,-0.10
365.49,-0.14
369.14,-0.17
372.83,-0.20
376.56,-0.23
380.33,-0.26
384.13,-0.29
387.97,-0.32
391.85,-0.35
395.77,-0.38
399.73,-0.40
403.72,-0.43
407.76,-0.46
411.84,-0.49
415.96,-0.51
420.12,-0.54
424.32,-0.57
428.56,-0.59
432.85,-0.62
437.18,-0.64
441.55,-0.67
445.96,-0.69
450.42,-0.71
454.93,-0.74
459.48,-0.76
464.07,-0.78
468.71,-0.80
473.40,-0.83
478.13,-0.85
482.91,-0.87
487.74,-0.89
492.62,-0.91
497.55,-0.92
502.52,-0.94
507.55,-0.96
512.62,-0.98
517.75,-1.00
522.93,-1.01
528.16,-1.03
533.44,-1.05
538.77,-1.06
544.16,-1.08
549.60,-1.09
555.10,-1.11
560.65,-1.12
566.25,-1.13
571.92,-1.15
577.64,-1.16
583.41,-1.17
589.25,-1.18
595.14,-1.19
601.09,-1.20
607.10,-1.21
613.17,-1.22
619.30,-1.23
625.50,-1.24
631.75,-1.24
638.07,-1.25
644.45,-1.25
650.89,-1.26
657.40,-1.26
663.98,-1.27
670.62,-1.27
677.32,-1.27
684.10,-1.27
690.94,-1.27
697.85,-1.27
704.83,-1.27
711.87,-1.26
718.99,-1.25
726.18,-1.25
733.44,-1.24
740.78,-1.23
748.19,-1.22
755.67,-1.21
763.23,-1.19
770.86,-1.18
778.57,-1.16
786.35,-1.14
794.22,-1.12
802.16,-1.10
810.18,-1.07
818.28,-1.05
826.46,-1.02
834.73,-0.99
843.08,-0.96
851.51,-0.92
860.02,-0.88
868.62,-0.85
877.31,-0.80
886.08,-0.76
894.94,-0.71
903.89,-0.66
912.93,-0.61
922.06,-0.55
931.28,-0.49
940.59,-0.43
950.00,-0.37
959.50,-0.30
969.09,-0.23
978.78,-0.16
988.57,-0.08
998.46,-0.01
1008.44,0.05
1018.53,0.10
1028.71,0.15
1039.00,0.17
1049.39,0.18
1059.88,0.19
1070.48,0.22
1081.19,0.26
1092.00,0.31
1102.92,0.40
1113.95,0.49
1125.09,0.59
1136.34,0.69
1147.70,0.79
1159.18,0.89
1170.77,0.98
1182.48,1.07
1194.30,1.16
1206.25,1.24
1218.31,1.32
1230.49,1.40
1242.80,1.47
1255.22,1.55
1267.78,1.62
1280.45,1.69
1293.26,1.76
1306.19,1.83
1319.25,1.90
1332.45,1.96
1345.77,2.03
1359.23,2.09
1372.82,2.16
1386.55,2.22
1400.41,2.29
1414.42,2.35
1428.56,2.42
1442.85,2.48
1457.28,2.54
1471.85,2.61
1486.57,2.68
1501.43,2.74
1516.45,2.81
1531.61,2.88
1546.93,2.95
1562.40,3.03
1578.02,3.10
1593.80,3.18
1609.74,3.26
1625.84,3.34
1642.10,3.43
1658.52,3.52
1675.10,3.60
1691.85,3.69
1708.77,3.78
1725.86,3.87
1743.12,3.96
1760.55,4.04
1778.15,4.12
1795.94,4.20
1813.90,4.28
1832.03,4.36
1850.36,4.44
1868.86,4.51
1887.55,4.59
1906.42,4.67
1925.49,4.74
1944.74,4.82
1964.19,4.90
1983.83,4.98
2003.67,5.06
2023.71,5.15
2043.94,5.23
2064.38,5.31
2085.03,5.40
2105.88,5.48
2126.94,5.57
2148.20,5.65
2169.69,5.74
2191.38,5.82
2213.30,5.91
2235.43,5.99
2257.78,6.08
2280.36,6.17
2303.17,6.25
2326.20,6.34
2349.46,6.43
2372.95,6.51
2396.68,6.60
2420.65,6.68
2444.86,6.76
2469.31,6.85
2494.00,6.93
2518.94,7.01
2544.13,7.09
2569.57,7.17
2595.27,7.25
2621.22,7.33
2647.43,7.41
2673.90,7.49
2700.64,7.56
2727.65,7.64
2754.93,7.71
2782.48,7.78
2810.30,7.85
2838.40,7.92
2866.79,7.98
2895.46,8.05
2924.41,8.10
2953.65,8.14
2983.19,8.18
3013.02,8.22
3043.15,8.23
3073.58,8.25
3104.32,8.23
3135.36,8.22
3166.72,8.19
3198.38,8.14
3230.37,8.10
3262.67,8.04
3295.30,7.97
3328.25,7.90
3361.53,7.83
3395.15,7.76
3429.10,7.68
3463.39,7.61
3498.03,7.54
3533.01,7.47
3568.34,7.41
3604.02,7.36
3640.06,7.31
3676.46,7.27
3713.22,7.23
3750.36,7.19
3787.86,7.16
3825.74,7.13
3864.00,7.10
3902.64,7.07
3941.66,7.03
3981.08,7.00
4020.89,6.97
4061.10,6.94
4101.71,6.90
4142.73,6.86
4184.15,6.81
4226.00,6.76
4268.26,6.71
4310.94,6.64
4354.05,6.57
4397.59,6.48
4441.56,6.38
4485.98,6.28
4530.84,6.16
4576.15,6.02
4621.91,5.88
4668.13,5.70
4714.81,5.52
4761.96,5.33
4809.58,5.11
4857.67,4.89
4906.25,4.63
4955.31,4.37
5004.87,4.10
5054.91,3.79
5105.46,3.48
5156.52,3.17
5208.08,2.84
5260.16,2.50
5312.77,2.17
5365.89,1.85
5419.55,1.54
5473.75,1.28
5528.49,1.10
5583.77,0.92
5639.61,0.95
5696.00,1.07
5752.96,1.19
5810.49,1.36
5868.60,1.76
5927.28,2.17
5986.56,2.58
6046.42,3.04
6106.89,3.52
6167.96,3.96
6229.64,4.35
6291.93,4.73
6354.85,4.94
6418.40,5.13
6482.58,5.31
6547.41,5.37
6612.88,5.38
6679.01,5.39
6745.80,5.35
6813.26,5.28
6881.39,5.22
6950.21,5.17
7019.71,5.13
7089.91,5.09
7160.81,5.11
7232.41,5.15
7304.74,5.19
7377.79,5.33
7451.56,5.46
7526.08,5.63
7601.34,5.86
7677.35,6.09
7754.13,6.32
7831.67,6.55
7909.98,6.78
7989.08,7.01
8068.98,7.10
8149.67,7.16
8231.16,7.22
8313.47,7.06
8396.61,6.83
8480.57,6.61
8565.38,6.21
8651.03,5.76
8737.54,5.31
8824.92,4.80
8913.17,4.27
9002.30,3.75
9092.32,3.30
9183.25,2.85
9275.08,2.44
9367.83,2.10
9461.51,1.77
9556.12,1.49
9651.68,1.23
9748.20,0.98
9845.68,0.76
9944.14,0.53
10043.58,0.33
10144.02,0.14
10245.46,-0.04
10347.91,-0.19
10451.39,-0.31
10555.91,-0.43
10661.46,-0.50
10768.08,-0.55
10875.76,-0.59
10984.52,-0.57
11094.36,-0.54
11205.31,-0.51
11317.36,-0.41
11430.53,-0.31
11544.84,-0.18
11660.29,0.00
11776.89,0.18
11894.66,0.46
12013.60,0.77
12133.74,1.08
12255.08,1.46
12377.63,1.93
12501.41,2.39
12626.42,2.95
12752.68,3.50
12880.21,3.97
13009.01,4.39
13139.10,4.80
13270.49,4.90
13403.20,4.73
13537.23,4.56
13672.60,4.10
13809.33,3.37
13947.42,2.65
14086.90,2.02
14227.77,1.45
14370.04,0.88
14513.74,0.35
14658.88,0.28
14805.47,0.20
14953.52,0.13
15103.06,0.13
15254.09,0.17
15406.63,0.21
15560.70,0.14
15716.30,-0.10
15873.47,-0.34
16032.20,-0.69
16192.52,-1.45
16354.45,-2.20
16517.99,-3.01
16683.17,-4.27
16850.01,-5.53
17018.51,-6.73
17188.69,-7.44
17360.58,-8.15
17534.18,-8.59
17709.53,-7.92
17886.62,-7.24
18065.49,-6.61
18246.14,-6.05
18428.60,-5.50
18612.89,-5.17
18799.02,-4.99
18987.01,-4.80
19176.88,-4.97
19368.65,-5.15
19562.33,-5.39
19757.96,-5.73
19955.54,-6.06
