frequency,raw
20.00,-1.32
20.20,-1.26
20.40,-1.21
20.61,-1.16
20.81,-1.11
21.02,-1.06
21.23,-1.01
21.44,-0.95
21.66,-0.90
21.87,-0.85
22.09,-0.80
22.31,-0.75
22.54,-0.70
22.76,-0.65
22.99,-0.60
23.22,-0.55
23.45,-0.51
23.69,-0.46
23.92,-0.41
24.16,-0.36
24.40,-0.31
24.65,-0.26
24.89,-0.22
25.14,-0.17
25.39,-0.12
25.65,-0.08
25.91,-0.03
26.16,0.01
26.43,0.06
26.69,0.10
26.96,0.15
27.23,0.19
27.50,0.23
27.77,0.27
28.05,0.32
28.33,0.36
28.62,0.40
28.90,0.44
29.19,0.48
29.48,0.52
29.78,0.56
30.08,0.60
30.38,0.64
30.68,0.68
30.99,0.72
31.30,0.75
31.61,0.79
31.93,0.83
32.24,0.87
32.57,0.90
32.89,0.94
33.22,0.98
33.55,1.01
33.89,1.05
34.23,1.08
34.57,1.12
34.92,1.15
35.27,1.19
35.62,1.22
35.97,1.25
36.33,1.29
36.70,1.32
37.06,1.35
37.43,1.39
37.81,1.42
38.19,1.45
38.57,1.48
38.95,1.52
39.34,1.55
39.74,1.58
40.14,1.61
40.54,1.64
40.94,1.67
41.35,1.70
41.76,1.73
42.18,1.76
42.60,1.79
43.03,1.82
43.46,1.84
43.90,1.87
44.33,1.90
44.78,1.93
45.23,1.96
45.68,1.99
46.13,2.01
46.60,2.04
47.06,2.07
47.53,2.10
48.01,2.13
48.49,2.15
48.97,2.18
49.46,2.21
49.96,2.23
50.46,2.26
50.96,2.29
51.47,2.31
51.99,2.34
52.51,2.36
53.03,2.39
53.56,2.41
54.10,2.44
54.64,2.46
55.18,2.49
55.74,2.51
56.29,2.53
56.86,2.56
57.42,2.58
58.00,2.60
58.58,2.62
59.16,2.64
59.76,2.66
60.35,2.69
60.96,2.71
61.57,2.74
62.18,2.77
62.80,2.79
63.43,2.81
64.07,2.84
64.71,2.86
65.35,2.88
66.01,2.90
66.67,2.93
67.33,2.95
68.01,2.97
68.69,2.99
69.37,3.01
70.07,3.03
70.77,3.05
71.48,3.07
72.19,3.10
72.91,3.12
73.64,3.14
74.38,3.16
75.12,3.18
75.87,3.20
76.63,3.22
77.40,3.23
78.17,3.25
78.95,3.27
79.74,3.29
80.54,3.31
81.35,3.33
82.16,3.35
82.98,3.37
83.81,3.38
84.65,3.40
85.50,3.42
86.35,3.43
87.22,3.45
88.09,3.47
88.97,3.48
89.86,3.50
90.76,3.51
91.66,3.53
92.58,3.54
93.51,3.56
94.44,3.57
95.39,3.58
96.34,3.60
97.30,3.61
98.28,3.63
99.26,3.64
100.25,3.65
101.25,3.67
102.27,3.68
103.29,3.69
104.32,3.70
105.37,3.71
106.42,3.72
107.48,3.73
108.56,3.74
109.64,3.75
110.74,3.76
111.85,3.77
112.97,3.77
114.10,3.78
115.24,3.78
116.39,3.78
117.55,3.78
118.73,3.78
119.92,3.79
121.12,3.79
122.33,3.79
123.55,3.80
124.79,3.81
126.03,3.81
127.29,3.81
128.57,3.81
129.85,3.80
131.15,3.80
132.46,3.80
133.79,3.79
135.12,3.78
136.48,3.78
137.84,3.77
139.22,3.76
140.61,3.75
142.02,3.74
143.44,3.73
144.87,3.73
146.32,3.72
147.78,3.72
149.26,3.72
150.75,3.72
152.26,3.73
153.78,3.73
155.32,3.74
156.88,3.74
158.44,3.74
160.03,3.74
161.63,3.73
163.24,3.72
164.88,3.70
166.53,3.68
168.19,3.66
169.87,3.64
171.57,3.62
173.29,3.59
175.02,3.56
176.77,3.54
178.54,3.51
180.32,3.48
182.13,3.45
183.95,3.42
185.79,3.39
187.65,3.36
189.52,3.33
191.42,3.30
193.33,3.27
195.27,3.24
197.22,3.21
199.19,3.17
201.18,3.14
203.19,3.10
205.23,3.06
207.28,3.02
209.35,2.98
211.44,2.94
213.56,2.89
215.69,2.85
217.85,2.80
220.03,2.75
222.23,2.70
224.45,2.65
226.70,2.60
228.96,2.55
231.25,2.50
233.57,2.45
235.90,2.40
238.26,2.34
240.64,2.29
243.05,2.23
245.48,2.18
247.93,2.12
250.41,2.07
252.92,2.01
255.45,1.96
258.00,1.90
260.58,1.84
263.19,1.78
265.82,1.73
268.48,1.67
271.16,1.61
273.87,1.56
276.61,1.50
279.38,1.44
282.17,1.39
284.99,1.33
287.84,1.27
290.72,1.22
293.63,1.16
296.57,1.11
299.53,1.06
302.53,1.00
305.55,0.95
308.61,0.90
311.69,0.85
314.81,0.80
317.96,0.75
321.14,0.70
324.35,0.65
327.59,0.61
330.87,0.56
334.18,0.52
337.52,0.48
340.90,0.43
344.30,0.39
347.75,0.35
351.23,0.31
354.74,0.28
358.28,0.24
361.87,0.21
365.49,0.17
369.14,0.14
372.83,0.11
376.56,0.08
380.33,0.05
384.13,0.02
387.97,-0.00
391.85,-0.03
395.77,-0.05
399.73,-0.08
403.72,-0.10
407.76,-0.12
411.84,-0.14
415.96,-0.16
420.12,-0.18
424.32,-0.19
428.56,-0.21
432.85,-0.22
437.18,-0.24
441.55,-0.25
445.96,-0.27
450.42,-0.28
454.93,-0.29
459.48,-0.31
464.07,-0.32
468.71,-0.33
473.40,-0.34
478.13,-0.35
482.91,-0.36
487.74,-0.37
492.62,-0.38
497.55,-0.39
502.52,-0.40
507.55,-0.41
512.62,-0.42
517.75,-0.43
522.93,-0.44
528.16,-0.45
533.44,-0.46
538.77,-0.47
544.16,-0.48
549.60,-0.49
555.10,-0.50
560.65,-0.51
566.25,-0.52
571.92,-0.53
577.64,-0.53
583.41,-0.54
589.25,-0.55
595.14,-0.56
601.09,-0.57
607.10,-0.57
613.17,-0.58
619.30,-0.59
625.50,-0.60
631.75,-0.61
638.07,-0.61
644.45,-0.62
650.89,-0.63
657.40,-0.64
663.98,-0.64
670.62,-0.65
677.32,-0.66
684.10,-0.66
690.94,-0.67
697.85,-0.67
704.83,-0.68
711.87,-0.69
718.99,-0.69
726.18,-0.69
733.44,-0.70
740.78,-0.70
748.19,-0.70
755.67,-0.70
763.23,-0.70
770.86,-0.70
778.57,-0.69
786.35,-0.69
794.22,-0.68
802.16,-0.68
810.18,-0.67
818.28,-0.66
826.46,-0.65
834.73,-0.63
843.08,-0.61
851.51,-0.60
860.02,-0.58
868.62,-0.55
877.31,-0.53
886.08,-0.50
894.94,-0.47
903.89,-0.44
912.93,-0.41
922.06,-0.37
931.28,-0.34
940.59,-0.30
950.00,-0.25
959.50,-0.21
969.09,-0.16
978.78,-0.11
988.57,-0.06
998.46,-0.01
1008.44,0.05
1018.53,0.10
1028.71,0.16
1039.00,0.22
1049.39,0.28
1059.88,0.34
1070.48,0.40
1081.19,0.47
1092.00,0.53
1102.92,0.59
1113.95,0.66
1125.09,0.72
1136.34,0.79
1147.70,0.85
1159.18,0.92
1170.77,0.98
1182.48,1.05
1194.30,1.11
1206.25,1.18
1218.31,1.24
1230.49,1.31
1242.80,1.37
1255.22,1.44
1267.78,1.50
1280.45,1.57
1293.26,1.64
1306.19,1.70
1319.25,1.77
1332.45,1.84
1345.77,1.91
1359.23,1.99
1372.82,2.06
1386.55,2.13
1400.41,2.21
1414.42,2.29
1428.56,2.37
1442.85,2.45
1457.28,2.53
1471.85,2.62
1486.57,2.71
1501.43,2.80
1516.45,2.89
1531.61,2.99
1546.93,3.08
1562.40,3.18
1578.02,3.29
1593.80,3.39
1609.74,3.50
1625.84,3.61
1642.10,3.72
1658.52,3.83
1675.10,3.94
1691.85,4.06
1708.77,4.17
1725.86,4.29
1743.12,4.40
1760.55,4.51
1778.15,4.62
1795.94,4.74
1813.90,4.84
1832.03,4.94
1850.36,5.04
1868.86,5.13
1887.55,5.21
1906.42,5.30
1925.49,5.37
1944.74,5.44
1964.19,5.51
1983.83,5.58
2003.67,5.65
2023.71,5.73
2043.94,5.81
2064.38,5.89
2085.03,5.99
2105.88,6.09
2126.94,6.21
2148.20,6.35
2169.69,6.49
2191.38,6.65
2213.30,6.83
2235.43,7.01
2257.78,7.22
2280.36,7.43
2303.17,7.65
2326.20,7.89
2349.46,8.13
2372.95,8.37
2396.68,8.61
2420.65,8.85
2444.86,9.08
2469.31,9.30
2494.00,9.52
2518.94,9.71
2544.13,9.88
2569.57,10.05
2595.27,10.18
2621.22,10.28
2647.43,10.38
2673.90,10.42
2700.64,10.45
2727.65,10.45
2754.93,10.41
2782.48,10.37
2810.30,10.30
2838.40,10.19
2866.79,10.08
2895.46,9.98
2924.41,9.84
2953.65,9.69
2983.19,9.54
3013.02,9.39
3043.15,9.23
3073.58,9.07
3104.32,8.91
3135.36,8.76
3166.72,8.60
3198.38,8.44
3230.37,8.28
3262.67,8.12
3295.30,7.94
3328.25,7.77
3361.53,7.60
3395.15,7.41
3429.10,7.23
3463.39,7.04
3498.03,6.86
3533.01,6.68
3568.34,6.49
3604.02,6.31
3640.06,6.13
3676.46,5.96
3713.22,5.79
3750.36,5.62
3787.86,5.48
3825.74,5.34
3864.00,5.20
3902.64,5.09
3941.66,4.98
3981.08,4.87
4020.89,4.76
4061.10,4.65
4101.71,4.54
4142.73,4.42
4184.15,4.29
4226.00,4.16
4268.26,4.02
4310.94,3.88
4354.05,3.74
4397.59,3.60
4441.56,3.46
4485.98,3.32
4530.84,3.20
4576.15,3.08
4621.91,2.96
4668.13,2.84
4714.81,2.73
4761.96,2.62
4809.58,2.50
4857.67,2.38
4906.25,2.25
4955.31,2.12
5004.87,1.99
5054.91,1.85
5105.46,1.71
5156.52,1.58
5208.08,1.43
5260.16,1.28
5312.77,1.13
5365.89,0.97
5419.55,0.81
5473.75,0.65
5528.49,0.50
5583.77,0.35
5639.61,0.25
5696.00,0.17
5752.96,0.09
5810.49,0.04
5868.60,0.08
5927.28,0.13
5986.56,0.18
6046.42,0.30
6106.89,0.45
6167.96,0.61
6229.64,0.79
6291.93,0.98
6354.85,1.14
6418.40,1.30
6482.58,1.46
6547.41,1.60
6612.88,1.73
6679.01,1.86
6745.80,2.03
6813.26,2.21
6881.39,2.39
6950.21,2.65
7019.71,2.94
7089.91,3.24
7160.81,3.66
7232.41,4.10
7304.74,4.55
7377.79,5.13
7451.56,5.71
7526.08,6.30
7601.34,6.89
7677.35,7.48
7754.13,8.06
7831.67,8.38
7909.98,8.70
7989.08,9.01
8068.98,8.90
8149.67,8.73
8231.16,8.55
8313.47,8.05
8396.61,7.46
8480.57,6.87
8565.38,6.13
8651.03,5.35
8737.54,4.56
8824.92,3.75
8913.17,2.94
9002.30,2.12
9092.32,1.36
9183.25,0.60
9275.08,-0.14
9367.83,-0.81
9461.51,-1.48
9556.12,-2.10
9651.68,-2.67
9748.20,-3.24
9845.68,-3.73
9944.14,-4.22
10043.58,-4.69
10144.02,-5.13
10245.46,-5.57
10347.91,-6.00
10451.39,-6.41
10555.91,-6.82
10661.46,-7.22
10768.08,-7.62
10875.76,-8.01
10984.52,-8.37
11094.36,-8.73
11205.31,-9.08
11317.36,-9.36
11430.53,-9.64
11544.84,-9.87
11660.29,-10.02
11776.89,-10.18
11894.66,-10.18
12013.60,-10.14
12133.74,-10.09
12255.08,-9.96
12377.63,-9.70
12501.41,-9.45
12626.42,-9.03
12752.68,-8.62
12880.21,-8.10
13009.01,-7.52
13139.10,-6.94
13270.49,-6.24
13403.20,-5.44
13537.23,-4.64
13672.60,-3.81
13809.33,-2.95
13947.42,-2.09
14086.90,-1.48
14227.77,-1.02
14370.04,-0.56
14513.74,-0.16
14658.88,-0.37
14805.47,-0.58
14953.52,-0.80
15103.06,-1.14
15254.09,-1.54
15406.63,-1.93
15560.70,-2.31
15716.30,-2.67
15873.47,-3.02
16032.20,-3.36
16192.52,-3.65
16354.45,-3.93
16517.99,-4.14
16683.17,-3.77
16850.01,-3.40
17018.51,-3.12
17188.69,-3.50
17360.58,-3.89
17534.18,-4.35
17709.53,-5.13
17886.62,-5.90
18065.49,-6.62
18246.14,-7.23
18428.60,-7.84
18612.89,-8.31
18799.02,-8.69
18987.01,-9.07
19176.88,-9.35
19368.65,-9.62
19562.33,-9.89
19757.96,-10.14
19955.54,-10.39
