frequency,raw
20.00,-1.16
20.20,-1.11
20.40,-1.05
20.61,-1.00
20.81,-0.95
21.02,-0.90
21.23,-0.85
21.44,-0.80
21.66,-0.75
21.87,-0.70
22.09,-0.65
22.31,-0.60
22.54,-0.55
22.76,-0.50
22.99,-0.45
23.22,-0.40
23.45,-0.35
23.69,-0.30
23.92,-0.25
24.16,-0.20
24.40,-0.15
24.65,-0.11
24.89,-0.06
25.14,-0.01
25.39,0.03
25.65,0.08
25.91,0.13
26.16,0.17
26.43,0.21
26.69,0.26
26.96,0.30
27.23,0.34
27.50,0.38
27.77,0.43
28.05,0.47
28.33,0.51
28.62,0.55
28.90,0.59
29.19,0.63
29.48,0.67
29.78,0.71
30.08,0.75
30.38,0.79
30.68,0.83
30.99,0.87
31.30,0.91
31.61,0.94
31.93,0.98
32.24,1.02
32.57,1.06
32.89,1.09
33.22,1.13
33.55,1.17
33.89,1.20
34.23,1.24
34.57,1.28
34.92,1.31
35.27,1.34
35.62,1.38
35.97,1.41
36.33,1.44
36.70,1.47
37.06,1.50
37.43,1.54
37.81,1.57
38.19,1.61
38.57,1.64
38.95,1.67
39.34,1.70
39.74,1.73
40.14,1.76
40.54,1.79
40.94,1.83
41.35,1.86
41.76,1.88
42.18,1.91
42.60,1.94
43.03,1.97
43.46,2.00
43.90,2.03
44.33,2.06
44.78,2.09
45.23,2.12
45.68,2.14
46.13,2.17
46.60,2.20
47.06,2.23
47.53,2.25
48.01,2.28
48.49,2.31
48.97,2.33
49.46,2.36
49.96,2.39
50.46,2.41
50.96,2.44
51.47,2.47
51.99,2.49
52.51,2.52
53.03,2.54
53.56,2.57
54.10,2.59
54.64,2.62
55.18,2.64
55.74,2.67
56.29,2.69
56.86,2.71
57.42,2.74
58.00,2.76
58.58,2.78
59.16,2.81
59.76,2.83
60.35,2.85
60.96,2.88
61.57,2.90
62.18,2.93
62.80,2.95
63.43,2.97
64.07,2.99
64.71,3.02
65.35,3.04
66.01,3.06
66.67,3.08
67.33,3.10
68.01,3.12
68.69,3.15
69.37,3.17
70.07,3.19
70.77,3.21
71.48,3.23
72.19,3.25
72.91,3.27
73.64,3.29
74.38,3.31
75.12,3.33
75.87,3.35
76.63,3.37
77.40,3.39
78.17,3.41
78.95,3.43
79.74,3.45
80.54,3.47
81.35,3.48
82.16,3.50
82.98,3.52
83.81,3.54
84.65,3.55
85.50,3.57
86.35,3.59
87.22,3.60
88.09,3.62
88.97,3.64
89.86,3.65
90.76,3.67
91.66,3.68
92.58,3.70
93.51,3.71
94.44,3.73
95.39,3.74
96.34,3.75
97.30,3.77
98.28,3.78
99.26,3.79
100.25,3.80
101.25,3.81
102.27,3.83
103.29,3.84
104.32,3.85
105.37,3.86
106.42,3.87
107.48,3.87
108.56,3.88
109.64,3.89
110.74,3.90
111.85,3.90
112.97,3.91
114.10,3.91
115.24,3.92
116.39,3.92
117.55,3.92
118.73,3.93
119.92,3.93
121.12,3.93
122.33,3.94
123.55,3.94
124.79,3.94
126.03,3.94
127.29,3.94
128.57,3.94
129.85,3.94
131.15,3.94
132.46,3.94
133.79,3.94
135.12,3.94
136.48,3.94
137.84,3.94
139.22,3.94
140.61,3.94
142.02,3.94
143.44,3.94
144.87,3.94
146.32,3.93
147.78,3.92
149.26,3.92
150.75,3.91
152.26,3.89
153.78,3.88
155.32,3.86
156.88,3.85
158.44,3.83
160.03,3.81
161.63,3.80
163.24,3.78
164.88,3.76
166.53,3.75
168.19,3.74
169.87,3.73
171.57,3.72
173.29,3.71
175.02,3.70
176.77,3.68
178.54,3.67
180.32,3.65
182.13,3.62
183.95,3.59
185.79,3.57
187.65,3.53
189.52,3.50
191.42,3.47
193.33,3.43
195.27,3.40
197.22,3.36
199.19,3.32
201.18,3.28
203.19,3.24
205.23,3.20
207.28,3.16
209.35,3.11
211.44,3.07
213.56,3.02
215.69,2.98
217.85,2.93
220.03,2.88
222.23,2.83
224.45,2.78
226.70,2.73
228.96,2.68
231.25,2.63
233.57,2.57
235.90,2.52
238.26,2.46
240.64,2.41
243.05,2.36
245.48,2.30
247.93,2.24
250.41,2.19
252.92,2.13
255.45,2.07
258.00,2.01
260.58,1.95
263.19,1.89
265.82,1.84
268.48,1.78
271.16,1.72
273.87,1.66
276.61,1.60
279.38,1.54
282.17,1.48
284.99,1.43
287.84,1.37
290.72,1.31
293.63,1.25
296.57,1.20
299.53,1.14
302.53,1.09
305.55,1.03
308.61,0.98
311.69,0.93
314.81,0.88
317.96,0.82
321.14,0.77
324.35,0.72
327.59,0.68
330.87,0.63
334.18,0.58
337.52,0.54
340.90,0.50
344.30,0.45
347.75,0.41
351.23,0.37
354.74,0.33
358.28,0.30
361.87,0.26
365.49,0.22
369.14,0.19
372.83,0.16
376.56,0.13
380.33,0.10
384.13,0.07
387.97,0.04
391.85,0.01
395.77,-0.01
399.73,-0.04
403.72,-0.06
407.76,-0.08
411.84,-0.11
415.96,-0.12
420.12,-0.14
424.32,-0.16
428.56,-0.18
432.85,-0.20
437.18,-0.21
441.55,-0.23
445.96,-0.24
450.42,-0.26
454.93,-0.27
459.48,-0.28
464.07,-0.30
468.71,-0.31
473.40,-0.32
478.13,-0.33
482.91,-0.34
487.74,-0.35
492.62,-0.36
497.55,-0.37
502.52,-0.38
507.55,-0.39
512.62,-0.40
517.75,-0.41
522.93,-0.42
528.16,-0.43
533.44,-0.44
538.77,-0.45
544.16,-0.46
549.60,-0.47
555.10,-0.48
560.65,-0.49
566.25,-0.50
571.92,-0.50
577.64,-0.51
583.41,-0.52
589.25,-0.53
595.14,-0.54
601.09,-0.55
607.10,-0.56
613.17,-0.57
619.30,-0.58
625.50,-0.59
631.75,-0.60
638.07,-0.60
644.45,-0.61
650.89,-0.62
657.40,-0.63
663.98,-0.64
670.62,-0.64
677.32,-0.65
684.10,-0.66
690.94,-0.66
697.85,-0.67
704.83,-0.67
711.87,-0.68
718.99,-0.68
726.18,-0.68
733.44,-0.69
740.78,-0.69
748.19,-0.69
755.67,-0.69
763.23,-0.69
770.86,-0.69
778.57,-0.68
786.35,-0.68
794.22,-0.67
802.16,-0.67
810.18,-0.66
818.28,-0.65
826.46,-0.64
834.73,-0.62
843.08,-0.61
851.51,-0.59
860.02,-0.57
868.62,-0.55
877.31,-0.53
886.08,-0.50
894.94,-0.47
903.89,-0.44
912.93,-0.41
922.06,-0.37
931.28,-0.33
940.59,-0.29
950.00,-0.25
959.50,-0.21
969.09,-0.16
978.78,-0.11
988.57,-0.06
998.46,-0.01
1008.44,0.05
1018.53,0.10
1028.71,0.16
1039.00,0.22
1049.39,0.28
1059.88,0.34
1070.48,0.40
1081.19,0.47
1092.00,0.53
1102.92,0.60
1113.95,0.66
1125.09,0.73
1136.34,0.79
1147.70,0.86
1159.18,0.93
1170.77,1.00
1182.48,1.06
1194.30,1.13
1206.25,1.19
1218.31,1.26
1230.49,1.32
1242.80,1.39
1255.22,1.45
1267.78,1.52
1280.45,1.58
1293.26,1.65
1306.19,1.72
1319.25,1.79
1332.45,1.86
1345.77,1.93
1359.23,2.00
1372.82,2.08
1386.55,2.15
1400.41,2.23
1414.42,2.31
1428.56,2.39
1442.85,2.47
1457.28,2.56
1471.85,2.65
1486.57,2.73
1501.43,2.82
1516.45,2.92
1531.61,3.02
1546.93,3.11
1562.40,3.22
1578.02,3.32
1593.80,3.43
1609.74,3.54
1625.84,3.65
1642.10,3.76
1658.52,3.88
1675.10,3.99
1691.85,4.11
1708.77,4.23
1725.86,4.34
1743.12,4.46
1760.55,4.58
1778.15,4.69
1795.94,4.80
1813.90,4.91
1832.03,5.01
1850.36,5.12
1868.86,5.21
1887.55,5.30
1906.42,5.39
1925.49,5.47
1944.74,5.55
1964.19,5.62
1983.83,5.69
2003.67,5.77
2023.71,5.85
2043.94,5.94
2064.38,6.02
2085.03,6.13
2105.88,6.24
2126.94,6.37
2148.20,6.51
2169.69,6.66
2191.38,6.83
2213.30,7.02
2235.43,7.21
2257.78,7.43
2280.36,7.65
2303.17,7.88
2326.20,8.12
2349.46,8.37
2372.95,8.61
2396.68,8.86
2420.65,9.10
2444.86,9.33
2469.31,9.56
2494.00,9.78
2518.94,9.96
2544.13,10.13
2569.57,10.30
2595.27,10.42
2621.22,10.51
2647.43,10.60
2673.90,10.63
2700.64,10.65
2727.65,10.64
2754.93,10.59
2782.48,10.54
2810.30,10.46
2838.40,10.35
2866.79,10.23
2895.46,10.12
2924.41,9.97
2953.65,9.82
2983.19,9.68
3013.02,9.52
3043.15,9.37
3073.58,9.22
3104.32,9.07
3135.36,8.92
3166.72,8.77
3198.38,8.61
3230.37,8.46
3262.67,8.30
3295.30,8.13
3328.25,7.96
3361.53,7.78
3395.15,7.59
3429.10,7.41
3463.39,7.22
3498.03,7.03
3533.01,6.83
3568.34,6.64
3604.02,6.45
3640.06,6.26
3676.46,6.08
3713.22,5.90
3750.36,5.72
3787.86,5.57
3825.74,5.42
3864.00,5.28
3902.64,5.16
3941.66,5.04
3981.08,4.93
4020.89,4.81
4061.10,4.69
4101.71,4.58
4142.73,4.44
4184.15,4.30
4226.00,4.16
4268.26,4.01
4310.94,3.86
4354.05,3.70
4397.59,3.55
4441.56,3.40
4485.98,3.25
4530.84,3.11
4576.15,2.98
4621.91,2.85
4668.13,2.73
4714.81,2.61
4761.96,2.49
4809.58,2.36
4857.67,2.24
4906.25,2.10
4955.31,1.97
5004.87,1.83
5054.91,1.70
5105.46,1.56
5156.52,1.43
5208.08,1.29
5260.16,1.15
5312.77,1.00
5365.89,0.86
5419.55,0.71
5473.75,0.58
5528.49,0.45
5583.77,0.32
5639.61,0.25
5696.00,0.20
5752.96,0.15
5810.49,0.13
5868.60,0.20
5927.28,0.28
5986.56,0.36
6046.42,0.51
6106.89,0.68
6167.96,0.86
6229.64,1.06
6291.93,1.26
6354.85,1.44
6418.40,1.61
6482.58,1.78
6547.41,1.93
6612.88,2.06
6679.01,2.20
6745.80,2.37
6813.26,2.56
6881.39,2.74
6950.21,3.01
7019.71,3.32
7089.91,3.62
7160.81,4.06
7232.41,4.52
7304.74,4.98
7377.79,5.58
7451.56,6.18
7526.08,6.77
7601.34,7.36
7677.35,7.96
7754.13,8.54
7831.67,8.83
7909.98,9.12
7989.08,9.41
8068.98,9.27
8149.67,9.06
8231.16,8.85
8313.47,8.35
8396.61,7.75
8480.57,7.16
8565.38,6.43
8651.03,5.67
8737.54,4.91
8824.92,4.13
8913.17,3.35
9002.30,2.58
9092.32,1.85
9183.25,1.13
9275.08,0.43
9367.83,-0.20
9461.51,-0.84
9556.12,-1.41
9651.68,-1.95
9748.20,-2.48
9845.68,-2.94
9944.14,-3.40
10043.58,-3.83
10144.02,-4.24
10245.46,-4.65
10347.91,-5.05
10451.39,-5.43
10555.91,-5.82
10661.46,-6.19
10768.08,-6.56
10875.76,-6.93
10984.52,-7.28
11094.36,-7.61
11205.31,-7.95
11317.36,-8.23
11430.53,-8.50
11544.84,-8.74
11660.29,-8.91
11776.89,-9.08
11894.66,-9.11
12013.60,-9.11
12133.74,-9.10
12255.08,-8.98
12377.63,-8.73
12501.41,-8.48
12626.42,-8.01
12752.68,-7.53
12880.21,-6.93
13009.01,-6.25
13139.10,-5.57
13270.49,-4.79
13403.20,-3.90
13537.23,-3.02
13672.60,-2.13
13809.33,-1.23
13947.42,-0.33
14086.90,0.28
14227.77,0.72
14370.04,1.16
14513.74,1.53
14658.88,1.26
14805.47,1.00
14953.52,0.74
15103.06,0.36
15254.09,-0.06
15406.63,-0.48
15560.70,-0.89
15716.30,-1.28
15873.47,-1.67
16032.20,-2.04
16192.52,-2.35
16354.45,-2.66
16517.99,-2.90
16683.17,-2.55
16850.01,-2.19
17018.51,-1.93
17188.69,-2.35
17360.58,-2.77
17534.18,-3.26
17709.53,-4.05
17886.62,-4.84
18065.49,-5.56
18246.14,-6.15
18428.60,-6.74
18612.89,-7.17
18799.02,-7.50
18987.01,-7.82
19176.88,-8.05
19368.65,-8.27
19562.33,-8.49
19757.96,-8.71
19955.54,-8.92
