frequency,raw
20.00,4.12
20.20,4.16
20.40,4.21
20.61,4.26
20.81,4.30
21.02,4.35
21.23,4.40
21.44,4.45
21.66,4.50
21.87,4.55
22.09,4.60
22.31,4.64
22.54,4.69
22.76,4.74
22.99,4.78
23.22,4.83
23.45,4.87
23.69,4.92
23.92,4.96
24.16,5.01
24.40,5.05
24.65,5.09
24.89,5.14
25.14,5.18
25.39,5.22
25.65,5.26
25.91,5.30
26.16,5.34
26.43,5.38
26.69,5.42
26.96,5.46
27.23,5.50
27.50,5.53
27.77,5.57
28.05,5.61
28.33,5.64
28.62,5.68
28.90,5.71
29.19,5.75
29.48,5.78
29.78,5.82
30.08,5.85
30.38,5.88
30.68,5.92
30.99,5.95
31.30,5.98
31.61,6.01
31.93,6.04
32.24,6.07
32.57,6.10
32.89,6.13
33.22,6.15
33.55,6.18
33.89,6.21
34.23,6.24
34.57,6.27
34.92,6.29
35.27,6.32
35.62,6.35
35.97,6.37
36.33,6.39
36.70,6.42
37.06,6.44
37.43,6.46
37.81,6.48
38.19,6.50
38.57,6.52
38.95,6.54
39.34,6.56
39.74,6.58
40.14,6.60
40.54,6.62
40.94,6.64
41.35,6.66
41.76,6.68
42.18,6.70
42.60,6.71
43.03,6.73
43.46,6.75
43.90,6.76
44.33,6.78
44.78,6.79
45.23,6.81
45.68,6.82
46.13,6.83
46.60,6.85
47.06,6.86
47.53,6.87
48.01,6.88
48.49,6.89
48.97,6.90
49.46,6.91
49.96,6.93
50.46,6.93
50.96,6.94
51.47,6.95
51.99,6.96
52.51,6.97
53.03,6.98
53.56,6.98
54.10,6.99
54.64,7.00
55.18,7.00
55.74,7.01
56.29,7.01
56.86,7.02
57.42,7.02
58.00,7.03
58.58,7.03
59.16,7.03
59.76,7.03
60.35,7.04
60.96,7.04
61.57,7.04
62.18,7.04
62.80,7.04
63.43,7.04
64.07,7.04
64.71,7.04
65.35,7.04
66.01,7.04
66.67,7.03
67.33,7.03
68.01,7.03
68.69,7.02
69.37,7.02
70.07,7.02
70.77,7.01
71.48,7.00
72.19,7.00
72.91,6.99
73.64,6.98
74.38,6.98
75.12,6.97
75.87,6.96
76.63,6.95
77.40,6.94
78.17,6.93
78.95,6.92
79.74,6.91
80.54,6.90
81.35,6.89
82.16,6.88
82.98,6.86
83.81,6.85
84.65,6.84
85.50,6.82
86.35,6.81
87.22,6.79
88.09,6.77
88.97,6.76
89.86,6.74
90.76,6.72
91.66,6.70
92.58,6.68
93.51,6.66
94.44,6.64
95.39,6.62
96.34,6.60
97.30,6.58
98.28,6.55
99.26,6.53
100.25,6.51
101.25,6.48
102.27,6.45
103.29,6.43
104.32,6.40
105.37,6.37
106.42,6.35
107.48,6.32
108.56,6.29
109.64,6.26
110.74,6.22
111.85,6.19
112.97,6.16
114.10,6.12
115.24,6.09
116.39,6.05
117.55,6.02
118.73,5.98
119.92,5.94
121.12,5.90
122.33,5.86
123.55,5.82
124.79,5.78
126.03,5.74
127.29,5.70
128.57,5.66
129.85,5.61
131.15,5.56
132.46,5.52
133.79,5.47
135.12,5.43
136.48,5.38
137.84,5.34
139.22,5.29
140.61,5.25
142.02,5.21
143.44,5.18
144.87,5.14
146.32,5.10
147.78,5.05
149.26,5.01
150.75,4.96
152.26,4.91
153.78,4.86
155.32,4.81
156.88,4.75
158.44,4.69
160.03,4.63
161.63,4.57
163.24,4.50
164.88,4.44
166.53,4.38
168.19,4.31
169.87,4.25
171.57,4.18
173.29,4.12
175.02,4.05
176.77,3.99
178.54,3.92
180.32,3.86
182.13,3.79
183.95,3.72
185.79,3.65
187.65,3.58
189.52,3.51
191.42,3.43
193.33,3.35
195.27,3.27
197.22,3.19
199.19,3.11
201.18,3.03
203.19,2.94
205.23,2.86
207.28,2.77
209.35,2.69
211.44,2.60
213.56,2.52
215.69,2.43
217.85,2.34
220.03,2.25
222.23,2.17
224.45,2.08
226.70,1.99
228.96,1.90
231.25,1.82
233.57,1.73
235.90,1.64
238.26,1.55
240.64,1.47
243.05,1.38
245.48,1.29
247.93,1.21
250.41,1.12
252.92,1.04
255.45,0.95
258.00,0.87
260.58,0.79
263.19,0.71
265.82,0.63
268.48,0.55
271.16,0.47
273.87,0.39
276.61,0.32
279.38,0.24
282.17,0.17
284.99,0.10
287.84,0.04
290.72,-0.03
293.63,-0.09
296.57,-0.16
299.53,-0.22
302.53,-0.27
305.55,-0.33
308.61,-0.38
311.69,-0.44
314.81,-0.49
317.96,-0.53
321.14,-0.58
324.35,-0.62
327.59,-0.66
330.87,-0.70
334.18,-0.74
337.52,-0.77
340.90,-0.80
344.30,-0.83
347.75,-0.86
351.23,-0.89
354.74,-0.91
358.28,-0.93
361.87,-0.95
365.49,-0.97
369.14,-0.98
372.83,-1.00
376.56,-1.01
380.33,-1.02
384.13,-1.03
387.97,-1.04
391.85,-1.04
395.77,-1.05
399.73,-1.05
403.72,-1.05
407.76,-1.05
411.84,-1.05
415.96,-1.05
420.12,-1.05
424.32,-1.05
428.56,-1.04
432.85,-1.04
437.18,-1.03
441.55,-1.03
445.96,-1.02
450.42,-1.02
454.93,-1.01
459.48,-1.01
464.07,-1.00
468.71,-0.99
473.40,-0.99
478.13,-0.98
482.91,-0.98
487.74,-0.97
492.62,-0.96
497.55,-0.96
502.52,-0.95
507.55,-0.95
512.62,-0.94
517.75,-0.94
522.93,-0.93
528.16,-0.93
533.44,-0.92
538.77,-0.92
544.16,-0.91
549.60,-0.91
555.10,-0.90
560.65,-0.90
566.25,-0.89
571.92,-0.89
577.64,-0.89
583.41,-0.88
589.25,-0.88
595.14,-0.88
601.09,-0.87
607.10,-0.87
613.17,-0.87
619.30,-0.87
625.50,-0.87
631.75,-0.87
638.07,-0.86
644.45,-0.86
650.89,-0.86
657.40,-0.86
663.98,-0.86
670.62,-0.86
677.32,-0.86
684.10,-0.86
690.94,-0.86
697.85,-0.86
704.83,-0.85
711.87,-0.85
718.99,-0.85
726.18,-0.85
733.44,-0.84
740.78,-0.84
748.19,-0.83
755.67,-0.83
763.23,-0.82
770.86,-0.81
778.57,-0.80
786.35,-0.79
794.22,-0.78
802.16,-0.77
810.18,-0.75
818.28,-0.74
826.46,-0.72
834.73,-0.70
843.08,-0.68
851.51,-0.66
860.02,-0.64
868.62,-0.61
877.31,-0.58
886.08,-0.55
894.94,-0.52
903.89,-0.48
912.93,-0.44
922.06,-0.41
931.28,-0.36
940.59,-0.32
950.00,-0.27
959.50,-0.22
969.09,-0.17
978.78,-0.12
988.57,-0.06
998.46,-0.01
1008.44,0.05
1018.53,0.11
1028.71,0.17
1039.00,0.23
1049.39,0.30
1059.88,0.36
1070.48,0.43
1081.19,0.49
1092.00,0.56
1102.92,0.63
1113.95,0.69
1125.09,0.76
1136.34,0.83
1147.70,0.90
1159.18,0.97
1170.77,1.04
1182.48,1.10
1194.30,1.17
1206.25,1.24
1218.31,1.31
1230.49,1.37
1242.80,1.44
1255.22,1.51
1267.78,1.57
1280.45,1.64
1293.26,1.71
1306.19,1.78
1319.25,1.85
1332.45,1.93
1345.77,2.00
1359.23,2.07
1372.82,2.15
1386.55,2.23
1400.41,2.31
1414.42,2.39
1428.56,2.47
1442.85,2.55
1457.28,2.64
1471.85,2.73
1486.57,2.82
1501.43,2.91
1516.45,3.01
1531.61,3.11
1546.93,3.21
1562.40,3.31
1578.02,3.42
1593.80,3.52
1609.74,3.63
1625.84,3.75
1642.10,3.86
1658.52,3.97
1675.10,4.09
1691.85,4.21
1708.77,4.33
1725.86,4.44
1743.12,4.56
1760.55,4.68
1778.15,4.79
1795.94,4.91
1813.90,5.01
1832.03,5.12
1850.36,5.22
1868.86,5.31
1887.55,5.40
1906.42,5.49
1925.49,5.57
1944.74,5.65
1964.19,5.72
1983.83,5.80
2003.67,5.88
2023.71,5.96
2043.94,6.04
2064.38,6.13
2085.03,6.24
2105.88,6.35
2126.94,6.47
2148.20,6.62
2169.69,6.76
2191.38,6.93
2213.30,7.12
2235.43,7.31
2257.78,7.53
2280.36,7.75
2303.17,7.98
2326.20,8.22
2349.46,8.46
2372.95,8.71
2396.68,8.95
2420.65,9.20
2444.86,9.43
2469.31,9.65
2494.00,9.87
2518.94,10.05
2544.13,10.22
2569.57,10.39
2595.27,10.51
2621.22,10.60
2647.43,10.69
2673.90,10.72
2700.64,10.73
2727.65,10.73
2754.93,10.67
2782.48,10.62
2810.30,10.54
2838.40,10.43
2866.79,10.31
2895.46,10.20
2924.41,10.05
2953.65,9.90
2983.19,9.76
3013.02,9.61
3043.15,9.45
3073.58,9.30
3104.32,9.15
3135.36,9.01
3166.72,8.86
3198.38,8.71
3230.37,8.56
3262.67,8.40
3295.30,8.23
3328.25,8.06
3361.53,7.88
3395.15,7.69
3429.10,7.50
3463.39,7.31
3498.03,7.12
3533.01,6.93
3568.34,6.74
3604.02,6.55
3640.06,6.35
3676.46,6.17
3713.22,5.99
3750.36,5.81
3787.86,5.67
3825.74,5.52
3864.00,5.38
3902.64,5.26
3941.66,5.14
3981.08,5.03
4020.89,4.91
4061.10,4.79
4101.71,4.67
4142.73,4.54
4184.15,4.39
4226.00,4.25
4268.26,4.10
4310.94,3.94
4354.05,3.79
4397.59,3.63
4441.56,3.49
4485.98,3.34
4530.84,3.20
4576.15,3.07
4621.91,2.94
4668.13,2.83
4714.81,2.71
4761.96,2.59
4809.58,2.46
4857.67,2.34
4906.25,2.20
4955.31,2.07
5004.87,1.94
5054.91,1.80
5105.46,1.67
5156.52,1.53
5208.08,1.39
5260.16,1.25
5312.77,1.11
5365.89,0.97
5419.55,0.82
5473.75,0.69
5528.49,0.57
5583.77,0.44
5639.61,0.38
5696.00,0.33
5752.96,0.29
5810.49,0.27
5868.60,0.36
5927.28,0.44
5986.56,0.53
6046.42,0.69
6106.89,0.87
6167.96,1.05
6229.64,1.26
6291.93,1.46
6354.85,1.64
6418.40,1.81
6482.58,1.98
6547.41,2.12
6612.88,2.26
6679.01,2.39
6745.80,2.56
6813.26,2.75
6881.39,2.93
6950.21,3.20
7019.71,3.50
7089.91,3.80
7160.81,4.24
7232.41,4.69
7304.74,5.16
7377.79,5.75
7451.56,6.34
7526.08,6.93
7601.34,7.52
7677.35,8.10
7754.13,8.67
7831.67,8.93
7909.98,9.20
7989.08,9.47
8068.98,9.31
8149.67,9.08
8231.16,8.85
8313.47,8.33
8396.61,7.72
8480.57,7.12
8565.38,6.40
8651.03,5.64
8737.54,4.88
8824.92,4.11
8913.17,3.34
9002.30,2.57
9092.32,1.85
9183.25,1.13
9275.08,0.44
9367.83,-0.19
9461.51,-0.81
9556.12,-1.38
9651.68,-1.91
9748.20,-2.44
9845.68,-2.89
9944.14,-3.35
10043.58,-3.78
10144.02,-4.18
10245.46,-4.58
10347.91,-4.98
10451.39,-5.36
10555.91,-5.74
10661.46,-6.11
10768.08,-6.47
10875.76,-6.84
10984.52,-7.18
11094.36,-7.51
11205.31,-7.84
11317.36,-8.11
11430.53,-8.38
11544.84,-8.61
11660.29,-8.78
11776.89,-8.95
11894.66,-8.97
12013.60,-8.96
12133.74,-8.95
12255.08,-8.83
12377.63,-8.57
12501.41,-8.31
12626.42,-7.83
12752.68,-7.35
12880.21,-6.74
13009.01,-6.05
13139.10,-5.36
13270.49,-4.56
13403.20,-3.67
13537.23,-2.77
13672.60,-1.87
13809.33,-0.97
13947.42,-0.07
14086.90,0.53
14227.77,0.95
14370.04,1.36
14513.74,1.71
14658.88,1.42
14805.47,1.13
14953.52,0.83
15103.06,0.44
15254.09,0.01
15406.63,-0.43
15560.70,-0.85
15716.30,-1.25
15873.47,-1.65
16032.20,-2.03
16192.52,-2.34
16354.45,-2.65
16517.99,-2.89
16683.17,-2.53
16850.01,-2.18
17018.51,-1.91
17188.69,-2.33
17360.58,-2.74
17534.18,-3.23
17709.53,-4.01
17886.62,-4.78
18065.49,-5.49
18246.14,-6.06
18428.60,-6.63
18612.89,-7.05
18799.02,-7.37
18987.01,-7.69
19176.88,-7.92
19368.65,-8.13
19562.33,-8.35
19757.96,-8.58
19955.54,-8.80
