frequency,raw
20.00,4.03
20.20,4.08
20.40,4.13
20.61,4.17
20.81,4.22
21.02,4.27
21.23,4.32
21.44,4.37
21.66,4.41
21.87,4.46
22.09,4.51
22.31,4.56
22.54,4.60
22.76,4.65
22.99,4.69
23.22,4.74
23.45,4.78
23.69,4.83
23.92,4.87
24.16,4.92
24.40,4.96
24.65,5.00
24.89,5.04
25.14,5.08
25.39,5.12
25.65,5.16
25.91,5.21
26.16,5.25
26.43,5.29
26.69,5.33
26.96,5.37
27.23,5.41
27.50,5.44
27.77,5.48
28.05,5.51
28.33,5.55
28.62,5.58
28.90,5.62
29.19,5.65
29.48,5.69
29.78,5.72
30.08,5.75
30.38,5.79
30.68,5.82
30.99,5.85
31.30,5.88
31.61,5.91
31.93,5.94
32.24,5.97
32.57,5.99
32.89,6.02
33.22,6.05
33.55,6.08
33.89,6.10
34.23,6.13
34.57,6.16
34.92,6.18
35.27,6.21
35.62,6.23
35.97,6.26
36.33,6.28
36.70,6.31
37.06,6.33
37.43,6.35
37.81,6.37
38.19,6.39
38.57,6.41
38.95,6.43
39.34,6.45
39.74,6.47
40.14,6.49
40.54,6.51
40.94,6.53
41.35,6.55
41.76,6.57
42.18,6.58
42.60,6.60
43.03,6.62
43.46,6.63
43.90,6.65
44.33,6.66
44.78,6.68
45.23,6.69
45.68,6.70
46.13,6.72
46.60,6.73
47.06,6.74
47.53,6.76
48.01,6.77
48.49,6.78
48.97,6.79
49.46,6.80
49.96,6.81
50.46,6.82
50.96,6.83
51.47,6.84
51.99,6.84
52.51,6.85
53.03,6.86
53.56,6.87
54.10,6.87
54.64,6.88
55.18,6.89
55.74,6.89
56.29,6.90
56.86,6.90
57.42,6.90
58.00,6.91
58.58,6.91
59.16,6.91
59.76,6.91
60.35,6.92
60.96,6.92
61.57,6.92
62.18,6.92
62.80,6.92
63.43,6.92
64.07,6.92
64.71,6.92
65.35,6.92
66.01,6.91
66.67,6.91
67.33,6.91
68.01,6.91
68.69,6.90
69.37,6.90
70.07,6.89
70.77,6.89
71.48,6.88
72.19,6.88
72.91,6.87
73.64,6.86
74.38,6.86
75.12,6.85
75.87,6.84
76.63,6.83
77.40,6.82
78.17,6.81
78.95,6.80
79.74,6.79
80.54,6.78
81.35,6.77
82.16,6.76
82.98,6.75
83.81,6.73
84.65,6.72
85.50,6.70
86.35,6.69
87.22,6.67
88.09,6.66
88.97,6.64
89.86,6.62
90.76,6.61
91.66,6.59
92.58,6.57
93.51,6.55
94.44,6.53
95.39,6.51
96.34,6.49
97.30,6.47
98.28,6.44
99.26,6.42
100.25,6.40
101.25,6.37
102.27,6.35
103.29,6.32
104.32,6.29
105.37,6.27
106.42,6.24
107.48,6.21
108.56,6.18
109.64,6.15
110.74,6.12
111.85,6.09
112.97,6.05
114.10,6.02
115.24,5.99
116.39,5.95
117.55,5.91
118.73,5.87
119.92,5.84
121.12,5.80
122.33,5.76
123.55,5.72
124.79,5.68
126.03,5.64
127.29,5.60
128.57,5.56
129.85,5.51
131.15,5.47
132.46,5.42
133.79,5.37
135.12,5.32
136.48,5.28
137.84,5.23
139.22,5.18
140.61,5.13
142.02,5.09
143.44,5.04
144.87,4.99
146.32,4.95
147.78,4.90
149.26,4.86
150.75,4.81
152.26,4.77
153.78,4.72
155.32,4.67
156.88,4.61
158.44,4.56
160.03,4.51
161.63,4.44
163.24,4.38
164.88,4.32
166.53,4.26
168.19,4.19
169.87,4.12
171.57,4.05
173.29,3.98
175.02,3.92
176.77,3.85
178.54,3.78
180.32,3.71
182.13,3.64
183.95,3.57
185.79,3.50
187.65,3.44
189.52,3.37
191.42,3.30
193.33,3.23
195.27,3.15
197.22,3.08
199.19,3.00
201.18,2.92
203.19,2.84
205.23,2.76
207.28,2.67
209.35,2.59
211.44,2.51
213.56,2.42
215.69,2.33
217.85,2.25
220.03,2.16
222.23,2.08
224.45,1.99
226.70,1.90
228.96,1.81
231.25,1.73
233.57,1.64
235.90,1.55
238.26,1.47
240.64,1.38
243.05,1.30
245.48,1.21
247.93,1.13
250.41,1.04
252.92,0.96
255.45,0.88
258.00,0.79
260.58,0.71
263.19,0.64
265.82,0.56
268.48,0.48
271.16,0.40
273.87,0.33
276.61,0.25
279.38,0.18
282.17,0.11
284.99,0.04
287.84,-0.02
290.72,-0.09
293.63,-0.15
296.57,-0.21
299.53,-0.27
302.53,-0.33
305.55,-0.38
308.61,-0.43
311.69,-0.48
314.81,-0.53
317.96,-0.58
321.14,-0.62
324.35,-0.67
327.59,-0.70
330.87,-0.74
334.18,-0.78
337.52,-0.81
340.90,-0.84
344.30,-0.87
347.75,-0.89
351.23,-0.92
354.74,-0.94
358.28,-0.96
361.87,-0.98
365.49,-0.99
369.14,-1.01
372.83,-1.02
376.56,-1.03
380.33,-1.04
384.13,-1.04
387.97,-1.05
391.85,-1.05
395.77,-1.06
399.73,-1.06
403.72,-1.06
407.76,-1.06
411.84,-1.06
415.96,-1.06
420.12,-1.06
424.32,-1.05
428.56,-1.05
432.85,-1.05
437.18,-1.04
441.55,-1.04
445.96,-1.03
450.42,-1.02
454.93,-1.02
459.48,-1.01
464.07,-1.01
468.71,-1.00
473.40,-0.99
478.13,-0.99
482.91,-0.98
487.74,-0.98
492.62,-0.97
497.55,-0.97
502.52,-0.96
507.55,-0.95
512.62,-0.95
517.75,-0.94
522.93,-0.94
528.16,-0.93
533.44,-0.93
538.77,-0.92
544.16,-0.92
549.60,-0.91
555.10,-0.91
560.65,-0.91
566.25,-0.90
571.92,-0.90
577.64,-0.90
583.41,-0.89
589.25,-0.89
595.14,-0.89
601.09,-0.89
607.10,-0.89
613.17,-0.88
619.30,-0.88
625.50,-0.88
631.75,-0.88
638.07,-0.88
644.45,-0.88
650.89,-0.88
657.40,-0.88
663.98,-0.87
670.62,-0.87
677.32,-0.87
684.10,-0.87
690.94,-0.87
697.85,-0.87
704.83,-0.86
711.87,-0.86
718.99,-0.86
726.18,-0.86
733.44,-0.85
740.78,-0.85
748.19,-0.84
755.67,-0.84
763.23,-0.83
770.86,-0.82
778.57,-0.81
786.35,-0.80
794.22,-0.79
802.16,-0.78
810.18,-0.76
818.28,-0.75
826.46,-0.73
834.73,-0.71
843.08,-0.69
851.51,-0.67
860.02,-0.64
868.62,-0.61
877.31,-0.59
886.08,-0.55
894.94,-0.52
903.89,-0.49
912.93,-0.45
922.06,-0.41
931.28,-0.37
940.59,-0.32
950.00,-0.28
959.50,-0.22
969.09,-0.17
978.78,-0.12
988.57,-0.07
998.46,-0.01
1008.44,0.05
1018.53,0.11
1028.71,0.17
1039.00,0.23
1049.39,0.30
1059.88,0.36
1070.48,0.43
1081.19,0.49
1092.00,0.56
1102.92,0.62
1113.95,0.69
1125.09,0.75
1136.34,0.82
1147.70,0.89
1159.18,0.95
1170.77,1.02
1182.48,1.09
1194.30,1.16
1206.25,1.23
1218.31,1.30
1230.49,1.36
1242.80,1.43
1255.22,1.50
1267.78,1.57
1280.45,1.64
1293.26,1.71
1306.19,1.78
1319.25,1.85
1332.45,1.92
1345.77,1.99
1359.23,2.06
1372.82,2.14
1386.55,2.21
1400.41,2.29
1414.42,2.37
1428.56,2.45
1442.85,2.53
1457.28,2.62
1471.85,2.71
1486.57,2.80
1501.43,2.88
1516.45,2.98
1531.61,3.08
1546.93,3.17
1562.40,3.27
1578.02,3.38
1593.80,3.48
1609.74,3.59
1625.84,3.70
1642.10,3.81
1658.52,3.92
1675.10,4.04
1691.85,4.15
1708.77,4.27
1725.86,4.38
1743.12,4.50
1760.55,4.61
1778.15,4.72
1795.94,4.83
1813.90,4.94
1832.03,5.04
1850.36,5.14
1868.86,5.23
1887.55,5.31
1906.42,5.40
1925.49,5.47
1944.74,5.55
1964.19,5.62
1983.83,5.69
2003.67,5.76
2023.71,5.83
2043.94,5.91
2064.38,5.99
2085.03,6.09
2105.88,6.20
2126.94,6.31
2148.20,6.45
2169.69,6.59
2191.38,6.75
2213.30,6.93
2235.43,7.12
2257.78,7.32
2280.36,7.54
2303.17,7.76
2326.20,8.00
2349.46,8.23
2372.95,8.47
2396.68,8.72
2420.65,8.96
2444.86,9.19
2469.31,9.41
2494.00,9.63
2518.94,9.82
2544.13,9.99
2569.57,10.16
2595.27,10.29
2621.22,10.39
2647.43,10.50
2673.90,10.53
2700.64,10.56
2727.65,10.57
2754.93,10.53
2782.48,10.48
2810.30,10.42
2838.40,10.31
2866.79,10.20
2895.46,10.10
2924.41,9.96
2953.65,9.81
2983.19,9.66
3013.02,9.51
3043.15,9.35
3073.58,9.18
3104.32,9.02
3135.36,8.85
3166.72,8.69
3198.38,8.52
3230.37,8.36
3262.67,8.19
3295.30,8.02
3328.25,7.84
3361.53,7.67
3395.15,7.49
3429.10,7.31
3463.39,7.12
3498.03,6.94
3533.01,6.75
3568.34,6.57
3604.02,6.39
3640.06,6.21
3676.46,6.03
3713.22,5.86
3750.36,5.70
3787.86,5.56
3825.74,5.42
3864.00,5.28
3902.64,5.17
3941.66,5.06
3981.08,4.95
4020.89,4.84
4061.10,4.73
4101.71,4.62
4142.73,4.50
4184.15,4.37
4226.00,4.23
4268.26,4.10
4310.94,3.96
4354.05,3.81
4397.59,3.68
4441.56,3.54
4485.98,3.41
4530.84,3.29
4576.15,3.17
4621.91,3.05
4668.13,2.93
4714.81,2.82
4761.96,2.70
4809.58,2.58
4857.67,2.45
4906.25,2.32
4955.31,2.18
5004.87,2.05
5054.91,1.91
5105.46,1.77
5156.52,1.63
5208.08,1.47
5260.16,1.32
5312.77,1.16
5365.89,1.00
5419.55,0.83
5473.75,0.67
5528.49,0.51
5583.77,0.36
5639.61,0.26
5696.00,0.18
5752.96,0.09
5810.49,0.03
5868.60,0.08
5927.28,0.13
5986.56,0.18
6046.42,0.30
6106.89,0.45
6167.96,0.60
6229.64,0.78
6291.93,0.95
6354.85,1.11
6418.40,1.26
6482.58,1.42
6547.41,1.55
6612.88,1.67
6679.01,1.80
6745.80,1.96
6813.26,2.13
6881.39,2.30
6950.21,2.55
7019.71,2.83
7089.91,3.11
7160.81,3.51
7232.41,3.94
7304.74,4.37
7377.79,4.94
7451.56,5.51
7526.08,6.09
7601.34,6.70
7677.35,7.31
7754.13,7.90
7831.67,8.27
7909.98,8.65
7989.08,9.02
8068.98,8.98
8149.67,8.87
8231.16,8.77
8313.47,8.32
8396.61,7.77
8480.57,7.22
8565.38,6.50
8651.03,5.72
8737.54,4.94
8824.92,4.12
8913.17,3.29
9002.30,2.46
9092.32,1.69
9183.25,0.91
9275.08,0.15
9367.83,-0.53
9461.51,-1.22
9556.12,-1.84
9651.68,-2.43
9748.20,-3.02
9845.68,-3.52
9944.14,-4.03
10043.58,-4.51
10144.02,-4.96
10245.46,-5.41
10347.91,-5.85
10451.39,-6.28
10555.91,-6.70
10661.46,-7.12
10768.08,-7.52
10875.76,-7.93
10984.52,-8.30
11094.36,-8.67
11205.31,-9.03
11317.36,-9.33
11430.53,-9.62
11544.84,-9.87
11660.29,-10.04
11776.89,-10.21
11894.66,-10.22
12013.60,-10.19
12133.74,-10.16
12255.08,-10.04
12377.63,-9.79
12501.41,-9.55
12626.42,-9.15
12752.68,-8.76
12880.21,-8.26
13009.01,-7.71
13139.10,-7.15
13270.49,-6.49
13403.20,-5.73
13537.23,-4.96
13672.60,-4.16
13809.33,-3.32
13947.42,-2.47
14086.90,-1.84
14227.77,-1.34
14370.04,-0.84
14513.74,-0.39
14658.88,-0.53
14805.47,-0.66
14953.52,-0.80
15103.06,-1.08
15254.09,-1.44
15406.63,-1.79
15560.70,-2.13
15716.30,-2.46
15873.47,-2.79
16032.20,-3.10
16192.52,-3.38
16354.45,-3.65
16517.99,-3.86
16683.17,-3.50
16850.01,-3.14
17018.51,-2.87
17188.69,-3.28
17360.58,-3.68
17534.18,-4.17
17709.53,-4.98
17886.62,-5.78
18065.49,-6.53
18246.14,-7.18
18428.60,-7.82
18612.89,-8.32
18799.02,-8.73
18987.01,-9.14
19176.88,-9.43
19368.65,-9.71
19562.33,-9.97
19757.96,-10.21
19955.54,-10.45
