frequency,raw
20.00,-4.09
20.20,-4.03
20.40,-3.96
20.61,-3.89
20.81,-3.81
21.02,-3.72
21.23,-3.64
21.44,-3.55
21.66,-3.46
21.87,-3.38
22.09,-3.31
22.31,-3.24
22.54,-3.16
22.76,-3.10
22.99,-3.03
23.22,-2.95
23.45,-2.88
23.69,-2.80
23.92,-2.72
24.16,-2.64
24.40,-2.57
24.65,-2.50
24.89,-2.43
25.14,-2.37
25.39,-2.31
25.65,-2.25
25.91,-2.20
26.16,-2.14
26.43,-2.09
26.69,-2.04
26.96,-1.98
27.23,-1.93
27.50,-1.88
27.77,-1.82
28.05,-1.77
28.33,-1.71
28.62,-1.65
28.90,-1.60
29.19,-1.53
29.48,-1.47
29.78,-1.41
30.08,-1.34
30.38,-1.28
30.68,-1.22
30.99,-1.17
31.30,-1.12
31.61,-1.07
31.93,-1.04
32.24,-1.00
32.57,-0.95
32.89,-0.90
33.22,-0.84
33.55,-0.78
33.89,-0.71
34.23,-0.65
34.57,-0.59
34.92,-0.54
35.27,-0.50
35.62,-0.45
35.97,-0.40
36.33,-0.35
36.70,-0.31
37.06,-0.26
37.43,-0.21
37.81,-0.17
38.19,-0.12
38.57,-0.08
38.95,-0.03
39.34,0.01
39.74,0.06
40.14,0.11
40.54,0.16
40.94,0.21
41.35,0.26
41.76,0.30
42.18,0.35
42.60,0.39
43.03,0.42
43.46,0.46
43.90,0.49
44.33,0.52
44.78,0.55
45.23,0.58
45.68,0.62
46.13,0.65
46.60,0.68
47.06,0.72
47.53,0.76
48.01,0.79
48.49,0.82
48.97,0.85
49.46,0.88
49.96,0.92
50.46,0.94
50.96,0.97
51.47,0.99
51.99,1.01
52.51,1.02
53.03,1.04
53.56,1.05
54.10,1.07
54.64,1.08
55.18,1.11
55.74,1.14
56.29,1.17
56.86,1.20
57.42,1.23
58.00,1.26
58.58,1.28
59.16,1.30
59.76,1.31
60.35,1.33
60.96,1.35
61.57,1.37
62.18,1.38
62.80,1.40
63.43,1.40
64.07,1.40
64.71,1.40
65.35,1.41
66.01,1.41
66.67,1.41
67.33,1.42
68.01,1.43
68.69,1.45
69.37,1.46
70.07,1.47
70.77,1.48
71.48,1.49
72.19,1.50
72.91,1.50
73.64,1.51
74.38,1.51
75.12,1.51
75.87,1.51
76.63,1.51
77.40,1.52
78.17,1.51
78.95,1.51
79.74,1.51
80.54,1.51
81.35,1.50
82.16,1.49
82.98,1.48
83.81,1.48
84.65,1.47
85.50,1.46
86.35,1.46
87.22,1.45
88.09,1.44
88.97,1.43
89.86,1.42
90.76,1.40
91.66,1.39
92.58,1.38
93.51,1.37
94.44,1.36
95.39,1.35
96.34,1.34
97.30,1.33
98.28,1.31
99.26,1.30
100.25,1.28
101.25,1.27
102.27,1.25
103.29,1.23
104.32,1.21
105.37,1.19
106.42,1.17
107.48,1.15
108.56,1.12
109.64,1.10
110.74,1.08
111.85,1.05
112.97,1.03
114.10,1.00
115.24,0.98
116.39,0.95
117.55,0.93
118.73,0.90
119.92,0.87
121.12,0.85
122.33,0.82
123.55,0.79
124.79,0.77
126.03,0.74
127.29,0.72
128.57,0.69
129.85,0.66
131.15,0.64
132.46,0.61
133.79,0.57
135.12,0.54
136.48,0.51
137.84,0.48
139.22,0.44
140.61,0.41
142.02,0.37
143.44,0.33
144.87,0.30
146.32,0.26
147.78,0.22
149.26,0.18
150.75,0.14
152.26,0.10
153.78,0.07
155.32,0.03
156.88,-0.00
158.44,-0.04
160.03,-0.07
161.63,-0.09
163.24,-0.10
164.88,-0.12
166.53,-0.14
168.19,-0.15
169.87,-0.17
171.57,-0.20
173.29,-0.22
175.02,-0.25
176.77,-0.28
178.54,-0.31
180.32,-0.35
182.13,-0.38
183.95,-0.42
185.79,-0.45
187.65,-0.48
189.52,-0.52
191.42,-0.55
193.33,-0.58
195.27,-0.61
197.22,-0.64
199.19,-0.67
201.18,-0.70
203.19,-0.74
205.23,-0.77
207.28,-0.81
209.35,-0.85
211.44,-0.88
213.56,-0.92
215.69,-0.96
217.85,-1.00
220.03,-1.04
222.23,-1.07
224.45,-1.11
226.70,-1.14
228.96,-1.18
231.25,-1.22
233.57,-1.25
235.90,-1.29
238.26,-1.32
240.64,-1.36
243.05,-1.39
245.48,-1.43
247.93,-1.46
250.41,-1.50
252.92,-1.53
255.45,-1.57
258.00,-1.60
260.58,-1.63
263.19,-1.67
265.82,-1.70
268.48,-1.73
271.16,-1.77
273.87,-1.80
276.61,-1.83
279.38,-1.86
282.17,-1.89
284.99,-1.91
287.84,-1.94
290.72,-1.97
293.63,-1.99
296.57,-2.02
299.53,-2.05
302.53,-2.07
305.55,-2.10
308.61,-2.13
311.69,-2.16
314.81,-2.18
317.96,-2.21
321.14,-2.23
324.35,-2.26
327.59,-2.29
330.87,-2.31
334.18,-2.33
337.52,-2.36
340.90,-2.38
344.30,-2.40
347.75,-2.43
351.23,-2.45
354.74,-2.47
358.28,-2.49
361.87,-2.51
365.49,-2.53
369.14,-2.55
372.83,-2.56
376.56,-2.58
380.33,-2.60
384.13,-2.62
387.97,-2.63
391.85,-2.65
395.77,-2.66
399.73,-2.68
403.72,-2.69
407.76,-2.70
411.84,-2.72
415.96,-2.73
420.12,-2.74
424.32,-2.75
428.56,-2.76
432.85,-2.77
437.18,-2.78
441.55,-2.79
445.96,-2.80
450.42,-2.80
454.93,-2.81
459.48,-2.82
464.07,-2.82
468.71,-2.83
473.40,-2.83
478.13,-2.83
482.91,-2.84
487.74,-2.84
492.62,-2.84
497.55,-2.84
502.52,-2.84
507.55,-2.84
512.62,-2.84
517.75,-2.83
522.93,-2.83
528.16,-2.83
533.44,-2.83
538.77,-2.82
544.16,-2.82
549.60,-2.81
555.10,-2.80
560.65,-2.80
566.25,-2.79
571.92,-2.78
577.64,-2.77
583.41,-2.76
589.25,-2.75
595.14,-2.73
601.09,-2.72
607.10,-2.70
613.17,-2.69
619.30,-2.67
625.50,-2.65
631.75,-2.63
638.07,-2.61
644.45,-2.59
650.89,-2.57
657.40,-2.55
663.98,-2.52
670.62,-2.50
677.32,-2.47
684.10,-2.44
690.94,-2.41
697.85,-2.39
704.83,-2.36
711.87,-2.32
718.99,-2.29
726.18,-2.26
733.44,-2.22
740.78,-2.18
748.19,-2.15
755.67,-2.10
763.23,-2.06
770.86,-2.02
778.57,-1.97
786.35,-1.92
794.22,-1.87
802.16,-1.82
810.18,-1.76
818.28,-1.71
826.46,-1.65
834.73,-1.58
843.08,-1.52
851.51,-1.45
860.02,-1.38
868.62,-1.31
877.31,-1.24
886.08,-1.16
894.94,-1.08
903.89,-1.00
912.93,-0.91
922.06,-0.82
931.28,-0.73
940.59,-0.63
950.00,-0.54
959.50,-0.44
969.09,-0.34
978.78,-0.23
988.57,-0.13
998.46,-0.02
1008.44,0.10
1018.53,0.21
1028.71,0.32
1039.00,0.44
1049.39,0.57
1059.88,0.69
1070.48,0.81
1081.19,0.93
1092.00,1.06
1102.92,1.19
1113.95,1.31
1125.09,1.44
1136.34,1.57
1147.70,1.70
1159.18,1.82
1170.77,1.95
1182.48,2.08
1194.30,2.21
1206.25,2.33
1218.31,2.46
1230.49,2.59
1242.80,2.71
1255.22,2.84
1267.78,2.96
1280.45,3.08
1293.26,3.20
1306.19,3.32
1319.25,3.44
1332.45,3.56
1345.77,3.67
1359.23,3.79
1372.82,3.91
1386.55,4.02
1400.41,4.14
1414.42,4.25
1428.56,4.37
1442.85,4.49
1457.28,4.60
1471.85,4.72
1486.57,4.84
1501.43,4.95
1516.45,5.07
1531.61,5.19
1546.93,5.31
1562.40,5.42
1578.02,5.54
1593.80,5.66
1609.74,5.78
1625.84,5.90
1642.10,6.02
1658.52,6.14
1675.10,6.26
1691.85,6.38
1708.77,6.50
1725.86,6.62
1743.12,6.75
1760.55,6.87
1778.15,6.99
1795.94,7.12
1813.90,7.25
1832.03,7.37
1850.36,7.50
1868.86,7.63
1887.55,7.76
1906.42,7.89
1925.49,8.02
1944.74,8.15
1964.19,8.28
1983.83,8.41
2003.67,8.54
2023.71,8.67
2043.94,8.81
2064.38,8.94
2085.03,9.07
2105.88,9.21
2126.94,9.34
2148.20,9.47
2169.69,9.61
2191.38,9.74
2213.30,9.87
2235.43,10.01
2257.78,10.14
2280.36,10.27
2303.17,10.40
2326.20,10.53
2349.46,10.66
2372.95,10.79
2396.68,10.92
2420.65,11.04
2444.86,11.16
2469.31,11.28
2494.00,11.39
2518.94,11.50
2544.13,11.60
2569.57,11.70
2595.27,11.79
2621.22,11.87
2647.43,11.96
2673.90,12.03
2700.64,12.10
2727.65,12.17
2754.93,12.22
2782.48,12.28
2810.30,12.32
2838.40,12.35
2866.79,12.38
2895.46,12.41
2924.41,12.42
2953.65,12.43
2983.19,12.44
3013.02,12.43
3043.15,12.42
3073.58,12.40
3104.32,12.38
3135.36,12.35
3166.72,12.31
3198.38,12.27
3230.37,12.22
3262.67,12.17
3295.30,12.12
3328.25,12.06
3361.53,12.00
3395.15,11.94
3429.10,11.87
3463.39,11.80
3498.03,11.73
3533.01,11.66
3568.34,11.59
3604.02,11.52
3640.06,11.44
3676.46,11.36
3713.22,11.28
3750.36,11.20
3787.86,11.12
3825.74,11.04
3864.00,10.95
3902.64,10.86
3941.66,10.77
3981.08,10.69
4020.89,10.59
4061.10,10.50
4101.71,10.41
4142.73,10.31
4184.15,10.21
4226.00,10.11
4268.26,10.01
4310.94,9.91
4354.05,9.81
4397.59,9.70
4441.56,9.60
4485.98,9.49
4530.84,9.38
4576.15,9.28
4621.91,9.17
4668.13,9.06
4714.81,8.96
4761.96,8.85
4809.58,8.76
4857.67,8.67
4906.25,8.60
4955.31,8.55
5004.87,8.50
5054.91,8.51
5105.46,8.52
5156.52,8.53
5208.08,8.56
5260.16,8.59
5312.77,8.61
5365.89,8.59
5419.55,8.57
5473.75,8.54
5528.49,8.48
5583.77,8.43
5639.61,8.39
5696.00,8.35
5752.96,8.32
5810.49,8.28
5868.60,8.25
5927.28,8.22
5986.56,8.19
6046.42,8.17
6106.89,8.14
6167.96,8.13
6229.64,8.13
6291.93,8.13
6354.85,8.16
6418.40,8.20
6482.58,8.23
6547.41,8.30
6612.88,8.39
6679.01,8.48
6745.80,8.61
6813.26,8.77
6881.39,8.93
6950.21,9.15
7019.71,9.39
7089.91,9.63
7160.81,9.95
7232.41,10.28
7304.74,10.62
7377.79,11.02
7451.56,11.42
7526.08,11.82
7601.34,12.22
7677.35,12.62
7754.13,13.01
7831.67,13.22
7909.98,13.43
7989.08,13.63
8068.98,13.51
8149.67,13.33
8231.16,13.14
8313.47,12.68
8396.61,12.12
8480.57,11.57
8565.38,10.87
8651.03,10.14
8737.54,9.40
8824.92,8.66
8913.17,7.91
9002.30,7.17
9092.32,6.49
9183.25,5.82
9275.08,5.17
9367.83,4.59
9461.51,4.02
9556.12,3.51
9651.68,3.04
9748.20,2.57
9845.68,2.20
9944.14,1.83
10043.58,1.51
10144.02,1.27
10245.46,1.02
10347.91,0.85
10451.39,0.78
10555.91,0.71
10661.46,0.74
10768.08,0.84
10875.76,0.94
10984.52,1.12
11094.36,1.33
11205.31,1.54
11317.36,1.78
11430.53,2.02
11544.84,2.26
11660.29,2.50
11776.89,2.74
11894.66,2.94
12013.60,3.12
12133.74,3.30
12255.08,3.41
12377.63,3.45
12501.41,3.48
12626.42,3.39
12752.68,3.29
12880.21,3.08
13009.01,2.81
13139.10,2.54
13270.49,2.18
13403.20,1.75
13537.23,1.31
13672.60,0.93
13809.33,0.58
13947.42,0.24
14086.90,0.31
14227.77,0.64
14370.04,0.97
14513.74,1.32
14658.88,1.83
14805.47,2.34
14953.52,2.86
15103.06,3.16
15254.09,3.37
15406.63,3.58
15560.70,3.60
15716.30,3.34
15873.47,3.09
16032.20,2.70
16192.52,1.80
16354.45,0.89
16517.99,-0.03
16683.17,-1.17
16850.01,-2.31
17018.51,-3.43
17188.69,-4.36
17360.58,-5.30
17534.18,-6.14
17709.53,-6.58
17886.62,-7.03
18065.49,-7.19
18246.14,-6.85
18428.60,-6.52
18612.89,-6.08
18799.02,-5.57
18987.01,-5.07
19176.88,-4.88
19368.65,-4.72
19562.33,-4.65
19757.96,-4.77
19955.54,-4.90
