frequency,raw
20.00,7.20
20.20,7.22
20.40,7.24
20.61,7.26
20.81,7.28
21.02,7.30
21.23,7.32
21.44,7.34
21.66,7.36
21.87,7.38
22.09,7.40
22.31,7.42
22.54,7.44
22.76,7.46
22.99,7.48
23.22,7.49
23.45,7.51
23.69,7.52
23.92,7.53
24.16,7.55
24.40,7.56
24.65,7.57
24.89,7.58
25.14,7.59
25.39,7.60
25.65,7.60
25.91,7.61
26.16,7.62
26.43,7.62
26.69,7.63
26.96,7.63
27.23,7.63
27.50,7.63
27.77,7.63
28.05,7.63
28.33,7.63
28.62,7.63
28.90,7.63
29.19,7.63
29.48,7.62
29.78,7.62
30.08,7.62
30.38,7.61
30.68,7.60
30.99,7.59
31.30,7.59
31.61,7.58
31.93,7.57
32.24,7.56
32.57,7.54
32.89,7.53
33.22,7.52
33.55,7.51
33.89,7.49
34.23,7.48
34.57,7.46
34.92,7.44
35.27,7.43
35.62,7.41
35.97,7.39
36.33,7.37
36.70,7.35
37.06,7.33
37.43,7.31
37.81,7.29
38.19,7.26
38.57,7.24
38.95,7.22
39.34,7.19
39.74,7.17
40.14,7.14
40.54,7.11
40.94,7.09
41.35,7.06
41.76,7.03
42.18,7.00
42.60,6.97
43.03,6.94
43.46,6.91
43.90,6.88
44.33,6.85
44.78,6.82
45.23,6.78
45.68,6.75
46.13,6.72
46.60,6.68
47.06,6.65
47.53,6.61
48.01,6.57
48.49,6.54
48.97,6.50
49.46,6.46
49.96,6.42
50.46,6.38
50.96,6.35
51.47,6.31
51.99,6.27
52.51,6.23
53.03,6.18
53.56,6.14
54.10,6.10
54.64,6.06
55.18,6.02
55.74,5.97
56.29,5.93
56.86,5.89
57.42,5.84
58.00,5.80
58.58,5.76
59.16,5.71
59.76,5.66
60.35,5.62
60.96,5.57
61.57,5.53
62.18,5.48
62.80,5.44
63.43,5.39
64.07,5.34
64.71,5.30
65.35,5.25
66.01,5.20
66.67,5.15
67.33,5.11
68.01,5.06
68.69,5.01
69.37,4.96
70.07,4.91
70.77,4.86
71.48,4.82
72.19,4.77
72.91,4.72
73.64,4.67
74.38,4.62
75.12,4.57
75.87,4.52
76.63,4.47
77.40,4.42
78.17,4.37
78.95,4.32
79.74,4.28
80.54,4.23
81.35,4.18
82.16,4.13
82.98,4.08
83.81,4.03
84.65,3.98
85.50,3.93
86.35,3.88
87.22,3.83
88.09,3.78
88.97,3.74
89.86,3.69
90.76,3.64
91.66,3.59
92.58,3.54
93.51,3.49
94.44,3.45
95.39,3.40
96.34,3.35
97.30,3.30
98.28,3.25
99.26,3.21
100.25,3.16
101.25,3.11
102.27,3.06
103.29,3.02
104.32,2.97
105.37,2.92
106.42,2.88
107.48,2.83
108.56,2.78
109.64,2.74
110.74,2.69
111.85,2.65
112.97,2.60
114.10,2.55
115.24,2.51
116.39,2.46
117.55,2.42
118.73,2.37
119.92,2.33
121.12,2.28
122.33,2.24
123.55,2.20
124.79,2.15
126.03,2.11
127.29,2.07
128.57,2.02
129.85,1.98
131.15,1.94
132.46,1.89
133.79,1.85
135.12,1.81
136.48,1.77
137.84,1.72
139.22,1.68
140.61,1.64
142.02,1.60
143.44,1.56
144.87,1.52
146.32,1.48
147.78,1.44
149.26,1.40
150.75,1.36
152.26,1.32
153.78,1.28
155.32,1.24
156.88,1.20
158.44,1.17
160.03,1.13
161.63,1.09
163.24,1.05
164.88,1.02
166.53,0.98
168.19,0.94
169.87,0.90
171.57,0.87
173.29,0.83
175.02,0.79
176.77,0.75
178.54,0.72
180.32,0.68
182.13,0.64
183.95,0.61
185.79,0.57
187.65,0.53
189.52,0.50
191.42,0.46
193.33,0.43
195.27,0.40
197.22,0.37
199.19,0.34
201.18,0.32
203.19,0.30
205.23,0.28
207.28,0.26
209.35,0.24
211.44,0.22
213.56,0.20
215.69,0.18
217.85,0.15
220.03,0.13
222.23,0.11
224.45,0.08
226.70,0.06
228.96,0.03
231.25,0.00
233.57,-0.02
235.90,-0.05
238.26,-0.08
240.64,-0.11
243.05,-0.14
245.48,-0.17
247.93,-0.20
250.41,-0.23
252.92,-0.25
255.45,-0.28
258.00,-0.31
260.58,-0.34
263.19,-0.37
265.82,-0.39
268.48,-0.42
271.16,-0.45
273.87,-0.47
276.61,-0.50
279.38,-0.52
282.17,-0.55
284.99,-0.57
287.84,-0.60
290.72,-0.62
293.63,-0.64
296.57,-0.67
299.53,-0.69
302.53,-0.71
305.55,-0.74
308.61,-0.76
311.69,-0.78
314.81,-0.80
317.96,-0.82
321.14,-0.84
324.35,-0.86
327.59,-0.88
330.87,-0.90
334.18,-0.92
337.52,-0.94
340.90,-0.96
344.30,-0.98
347.75,-1.00
351.23,-1.02
354.74,-1.04
358.28,-1.05
361.87,-1.07
365.49,-1.09
369.14,-1.11
372.83,-1.12
376.56,-1.14
380.33,-1.15
384.13,-1.17
387.97,-1.18
391.85,-1.20
395.77,-1.22
399.73,-1.23
403.72,-1.25
407.76,-1.26
411.84,-1.28
415.96,-1.29
420.12,-1.30
424.32,-1.32
428.56,-1.33
432.85,-1.34
437.18,-1.35
441.55,-1.36
445.96,-1.37
450.42,-1.38
454.93,-1.39
459.48,-1.40
464.07,-1.41
468.71,-1.42
473.40,-1.43
478.13,-1.44
482.91,-1.45
487.74,-1.46
492.62,-1.46
497.55,-1.47
502.52,-1.48
507.55,-1.49
512.62,-1.49
517.75,-1.50
522.93,-1.50
528.16,-1.51
533.44,-1.51
538.77,-1.51
544.16,-1.51
549.60,-1.51
555.10,-1.51
560.65,-1.51
566.25,-1.51
571.92,-1.52
577.64,-1.52
583.41,-1.52
589.25,-1.52
595.14,-1.52
601.09,-1.52
607.10,-1.52
613.17,-1.52
619.30,-1.52
625.50,-1.52
631.75,-1.52
638.07,-1.51
644.45,-1.51
650.89,-1.51
657.40,-1.50
663.98,-1.50
670.62,-1.49
677.32,-1.48
684.10,-1.47
690.94,-1.47
697.85,-1.46
704.83,-1.45
711.87,-1.43
718.99,-1.42
726.18,-1.41
733.44,-1.40
740.78,-1.38
748.19,-1.36
755.67,-1.34
763.23,-1.32
770.86,-1.30
778.57,-1.28
786.35,-1.25
794.22,-1.23
802.16,-1.20
810.18,-1.17
818.28,-1.13
826.46,-1.10
834.73,-1.06
843.08,-1.02
851.51,-0.98
860.02,-0.94
868.62,-0.89
877.31,-0.84
886.08,-0.79
894.94,-0.74
903.89,-0.69
912.93,-0.63
922.06,-0.57
931.28,-0.51
940.59,-0.44
950.00,-0.38
959.50,-0.31
969.09,-0.24
978.78,-0.16
988.57,-0.09
998.46,-0.01
1008.44,0.07
1018.53,0.15
1028.71,0.23
1039.00,0.31
1049.39,0.39
1059.88,0.47
1070.48,0.56
1081.19,0.64
1092.00,0.73
1102.92,0.81
1113.95,0.89
1125.09,0.98
1136.34,1.06
1147.70,1.14
1159.18,1.22
1170.77,1.30
1182.48,1.38
1194.30,1.46
1206.25,1.54
1218.31,1.61
1230.49,1.69
1242.80,1.76
1255.22,1.83
1267.78,1.90
1280.45,1.97
1293.26,2.04
1306.19,2.10
1319.25,2.17
1332.45,2.23
1345.77,2.29
1359.23,2.36
1372.82,2.42
1386.55,2.48
1400.41,2.54
1414.42,2.59
1428.56,2.65
1442.85,2.71
1457.28,2.77
1471.85,2.83
1486.57,2.88
1501.43,2.94
1516.45,3.00
1531.61,3.06
1546.93,3.12
1562.40,3.18
1578.02,3.24
1593.80,3.30
1609.74,3.36
1625.84,3.43
1642.10,3.49
1658.52,3.55
1675.10,3.62
1691.85,3.69
1708.77,3.75
1725.86,3.82
1743.12,3.89
1760.55,3.97
1778.15,4.04
1795.94,4.11
1813.90,4.19
1832.03,4.27
1850.36,4.35
1868.86,4.43
1887.55,4.52
1906.42,4.60
1925.49,4.69
1944.74,4.78
1964.19,4.87
1983.83,4.96
2003.67,5.06
2023.71,5.16
2043.94,5.26
2064.38,5.36
2085.03,5.46
2105.88,5.56
2126.94,5.66
2148.20,5.77
2169.69,5.87
2191.38,5.98
2213.30,6.08
2235.43,6.19
2257.78,6.29
2280.36,6.39
2303.17,6.49
2326.20,6.58
2349.46,6.68
2372.95,6.77
2396.68,6.85
2420.65,6.93
2444.86,7.01
2469.31,7.08
2494.00,7.15
2518.94,7.21
2544.13,7.27
2569.57,7.33
2595.27,7.37
2621.22,7.41
2647.43,7.46
2673.90,7.49
2700.64,7.51
2727.65,7.54
2754.93,7.55
2782.48,7.57
2810.30,7.57
2838.40,7.57
2866.79,7.57
2895.46,7.57
2924.41,7.55
2953.65,7.54
2983.19,7.52
3013.02,7.49
3043.15,7.46
3073.58,7.43
3104.32,7.39
3135.36,7.35
3166.72,7.30
3198.38,7.25
3230.37,7.20
3262.67,7.15
3295.30,7.09
3328.25,7.03
3361.53,6.98
3395.15,6.91
3429.10,6.85
3463.39,6.79
3498.03,6.73
3533.01,6.67
3568.34,6.61
3604.02,6.56
3640.06,6.50
3676.46,6.45
3713.22,6.40
3750.36,6.35
3787.86,6.30
3825.74,6.26
3864.00,6.22
3902.64,6.19
3941.66,6.16
3981.08,6.13
4020.89,6.11
4061.10,6.10
4101.71,6.09
4142.73,6.09
4184.15,6.10
4226.00,6.10
4268.26,6.12
4310.94,6.15
4354.05,6.17
4397.59,6.21
4441.56,6.26
4485.98,6.30
4530.84,6.36
4576.15,6.42
4621.91,6.49
4668.13,6.56
4714.81,6.64
4761.96,6.72
4809.58,6.80
4857.67,6.89
4906.25,6.97
4955.31,7.05
5004.87,7.14
5054.91,7.21
5105.46,7.28
5156.52,7.35
5208.08,7.40
5260.16,7.45
5312.77,7.49
5365.89,7.50
5419.55,7.51
5473.75,7.51
5528.49,7.48
5583.77,7.44
5639.61,7.36
5696.00,7.26
5752.96,7.16
5810.49,7.05
5868.60,6.88
5927.28,6.70
5986.56,6.53
6046.42,6.35
6106.89,6.15
6167.96,5.97
6229.64,5.78
6291.93,5.60
6354.85,5.46
6418.40,5.31
6482.58,5.17
6547.41,5.08
6612.88,5.01
6679.01,4.95
6745.80,4.96
6813.26,5.02
6881.39,5.08
6950.21,5.28
7019.71,5.53
7089.91,5.78
7160.81,6.22
7232.41,6.69
7304.74,7.17
7377.79,7.68
7451.56,8.19
7526.08,8.64
7601.34,8.96
7677.35,9.28
7754.13,9.58
7831.67,9.69
7909.98,9.79
7989.08,9.89
8068.98,9.68
8149.67,9.41
8231.16,9.14
8313.47,8.58
8396.61,7.94
8480.57,7.29
8565.38,6.50
8651.03,5.66
8737.54,4.83
8824.92,4.00
8913.17,3.18
9002.30,2.36
9092.32,1.64
9183.25,0.93
9275.08,0.25
9367.83,-0.33
9461.51,-0.92
9556.12,-1.41
9651.68,-1.85
9748.20,-2.28
9845.68,-2.56
9944.14,-2.84
10043.58,-3.07
10144.02,-3.23
10245.46,-3.38
10347.91,-3.51
10451.39,-3.59
10555.91,-3.67
10661.46,-3.75
10768.08,-3.83
10875.76,-3.91
10984.52,-4.05
11094.36,-4.22
11205.31,-4.39
11317.36,-4.71
11430.53,-5.04
11544.84,-5.42
11660.29,-5.90
11776.89,-6.37
11894.66,-6.86
12013.60,-7.35
12133.74,-7.84
12255.08,-8.23
12377.63,-8.51
12501.41,-8.77
12626.42,-8.68
12752.68,-8.59
12880.21,-8.27
13009.01,-7.80
13139.10,-7.34
13270.49,-6.84
13403.20,-6.31
13537.23,-5.78
13672.60,-5.37
13809.33,-5.05
13947.42,-4.74
14086.90,-4.49
14227.77,-4.29
14370.04,-4.09
14513.74,-3.86
14658.88,-3.49
14805.47,-3.11
14953.52,-2.73
15103.06,-2.42
15254.09,-2.14
15406.63,-1.87
15560.70,-1.87
15716.30,-2.31
15873.47,-2.76
16032.20,-3.33
16192.52,-4.41
16354.45,-5.49
16517.99,-6.58
16683.17,-7.71
16850.01,-8.84
17018.51,-9.95
17188.69,-10.79
17360.58,-11.64
17534.18,-12.43
17709.53,-12.96
17886.62,-13.49
18065.49,-13.91
18246.14,-14.13
18428.60,-14.36
18612.89,-14.40
18799.02,-14.34
18987.01,-14.27
19176.88,-14.23
19368.65,-14.19
19562.33,-14.22
19757.96,-14.41
19955.54,-14.60
