frequency,raw
20.00,4.52
20.20,4.56
20.40,4.59
20.61,4.63
20.81,4.66
21.02,4.70
21.23,4.73
21.44,4.77
21.66,4.80
21.87,4.84
22.09,4.87
22.31,4.91
22.54,4.94
22.76,4.97
22.99,5.01
23.22,5.04
23.45,5.08
23.69,5.11
23.92,5.14
24.16,5.16
24.40,5.19
24.65,5.20
24.89,5.22
25.14,5.23
25.39,5.25
25.65,5.26
25.91,5.28
26.16,5.30
26.43,5.31
26.69,5.33
26.96,5.35
27.23,5.36
27.50,5.38
27.77,5.39
28.05,5.40
28.33,5.42
28.62,5.44
28.90,5.45
29.19,5.46
29.48,5.48
29.78,5.49
30.08,5.50
30.38,5.50
30.68,5.51
30.99,5.51
31.30,5.51
31.61,5.51
31.93,5.51
32.24,5.50
32.57,5.50
32.89,5.49
33.22,5.48
33.55,5.47
33.89,5.47
34.23,5.47
34.57,5.46
34.92,5.46
35.27,5.47
35.62,5.47
35.97,5.46
36.33,5.46
36.70,5.45
37.06,5.44
37.43,5.43
37.81,5.41
38.19,5.40
38.57,5.39
38.95,5.38
39.34,5.37
39.74,5.36
40.14,5.35
40.54,5.33
40.94,5.31
41.35,5.30
41.76,5.28
42.18,5.27
42.60,5.26
43.03,5.24
43.46,5.23
43.90,5.21
44.33,5.18
44.78,5.16
45.23,5.14
45.68,5.11
46.13,5.09
46.60,5.07
47.06,5.04
47.53,5.02
48.01,5.00
48.49,4.97
48.97,4.95
49.46,4.93
49.96,4.91
50.46,4.88
50.96,4.86
51.47,4.83
51.99,4.80
52.51,4.78
53.03,4.75
53.56,4.73
54.10,4.70
54.64,4.67
55.18,4.64
55.74,4.61
56.29,4.57
56.86,4.54
57.42,4.50
58.00,4.47
58.58,4.44
59.16,4.40
59.76,4.37
60.35,4.34
60.96,4.31
61.57,4.27
62.18,4.24
62.80,4.20
63.43,4.17
64.07,4.14
64.71,4.11
65.35,4.07
66.01,4.04
66.67,4.00
67.33,3.96
68.01,3.92
68.69,3.88
69.37,3.85
70.07,3.81
70.77,3.78
71.48,3.74
72.19,3.71
72.91,3.67
73.64,3.63
74.38,3.59
75.12,3.56
75.87,3.52
76.63,3.48
77.40,3.44
78.17,3.40
78.95,3.36
79.74,3.32
80.54,3.29
81.35,3.25
82.16,3.21
82.98,3.17
83.81,3.13
84.65,3.09
85.50,3.05
86.35,3.01
87.22,2.97
88.09,2.93
88.97,2.89
89.86,2.84
90.76,2.80
91.66,2.76
92.58,2.72
93.51,2.68
94.44,2.64
95.39,2.60
96.34,2.56
97.30,2.52
98.28,2.48
99.26,2.43
100.25,2.39
101.25,2.35
102.27,2.31
103.29,2.27
104.32,2.23
105.37,2.19
106.42,2.15
107.48,2.11
108.56,2.07
109.64,2.03
110.74,1.99
111.85,1.94
112.97,1.90
114.10,1.86
115.24,1.82
116.39,1.77
117.55,1.73
118.73,1.69
119.92,1.65
121.12,1.61
122.33,1.56
123.55,1.52
124.79,1.48
126.03,1.44
127.29,1.40
128.57,1.36
129.85,1.32
131.15,1.28
132.46,1.25
133.79,1.21
135.12,1.17
136.48,1.14
137.84,1.10
139.22,1.06
140.61,1.03
142.02,1.00
143.44,0.96
144.87,0.93
146.32,0.90
147.78,0.86
149.26,0.83
150.75,0.80
152.26,0.76
153.78,0.73
155.32,0.69
156.88,0.66
158.44,0.62
160.03,0.58
161.63,0.55
163.24,0.51
164.88,0.48
166.53,0.45
168.19,0.41
169.87,0.38
171.57,0.35
173.29,0.31
175.02,0.28
176.77,0.25
178.54,0.22
180.32,0.18
182.13,0.15
183.95,0.11
185.79,0.08
187.65,0.05
189.52,0.01
191.42,-0.02
193.33,-0.05
195.27,-0.09
197.22,-0.12
199.19,-0.16
201.18,-0.19
203.19,-0.22
205.23,-0.25
207.28,-0.29
209.35,-0.32
211.44,-0.35
213.56,-0.38
215.69,-0.42
217.85,-0.45
220.03,-0.48
222.23,-0.51
224.45,-0.54
226.70,-0.57
228.96,-0.61
231.25,-0.64
233.57,-0.67
235.90,-0.70
238.26,-0.72
240.64,-0.75
243.05,-0.78
245.48,-0.81
247.93,-0.83
250.41,-0.86
252.92,-0.89
255.45,-0.91
258.00,-0.94
260.58,-0.97
263.19,-0.99
265.82,-1.02
268.48,-1.05
271.16,-1.07
273.87,-1.10
276.61,-1.13
279.38,-1.15
282.17,-1.18
284.99,-1.20
287.84,-1.23
290.72,-1.25
293.63,-1.28
296.57,-1.30
299.53,-1.32
302.53,-1.34
305.55,-1.37
308.61,-1.39
311.69,-1.41
314.81,-1.43
317.96,-1.45
321.14,-1.47
324.35,-1.49
327.59,-1.51
330.87,-1.53
334.18,-1.55
337.52,-1.57
340.90,-1.59
344.30,-1.60
347.75,-1.62
351.23,-1.64
354.74,-1.66
358.28,-1.67
361.87,-1.69
365.49,-1.71
369.14,-1.72
372.83,-1.74
376.56,-1.76
380.33,-1.77
384.13,-1.79
387.97,-1.80
391.85,-1.81
395.77,-1.83
399.73,-1.84
403.72,-1.86
407.76,-1.87
411.84,-1.88
415.96,-1.89
420.12,-1.90
424.32,-1.92
428.56,-1.93
432.85,-1.94
437.18,-1.95
441.55,-1.95
445.96,-1.96
450.42,-1.97
454.93,-1.98
459.48,-1.99
464.07,-2.00
468.71,-2.00
473.40,-2.01
478.13,-2.02
482.91,-2.02
487.74,-2.03
492.62,-2.03
497.55,-2.03
502.52,-2.04
507.55,-2.04
512.62,-2.05
517.75,-2.05
522.93,-2.05
528.16,-2.05
533.44,-2.06
538.77,-2.06
544.16,-2.06
549.60,-2.06
555.10,-2.05
560.65,-2.05
566.25,-2.05
571.92,-2.04
577.64,-2.04
583.41,-2.03
589.25,-2.03
595.14,-2.02
601.09,-2.02
607.10,-2.01
613.17,-2.00
619.30,-1.99
625.50,-1.98
631.75,-1.97
638.07,-1.96
644.45,-1.95
650.89,-1.93
657.40,-1.92
663.98,-1.90
670.62,-1.89
677.32,-1.87
684.10,-1.85
690.94,-1.84
697.85,-1.82
704.83,-1.80
711.87,-1.77
718.99,-1.75
726.18,-1.72
733.44,-1.70
740.78,-1.67
748.19,-1.64
755.67,-1.61
763.23,-1.57
770.86,-1.54
778.57,-1.51
786.35,-1.47
794.22,-1.43
802.16,-1.39
810.18,-1.35
818.28,-1.31
826.46,-1.26
834.73,-1.21
843.08,-1.16
851.51,-1.11
860.02,-1.06
868.62,-1.00
877.31,-0.94
886.08,-0.88
894.94,-0.82
903.89,-0.76
912.93,-0.69
922.06,-0.62
931.28,-0.55
940.59,-0.48
950.00,-0.41
959.50,-0.33
969.09,-0.25
978.78,-0.18
988.57,-0.09
998.46,-0.01
1008.44,0.07
1018.53,0.16
1028.71,0.24
1039.00,0.33
1049.39,0.42
1059.88,0.50
1070.48,0.59
1081.19,0.68
1092.00,0.77
1102.92,0.87
1113.95,0.96
1125.09,1.05
1136.34,1.14
1147.70,1.23
1159.18,1.32
1170.77,1.41
1182.48,1.51
1194.30,1.60
1206.25,1.69
1218.31,1.78
1230.49,1.88
1242.80,1.97
1255.22,2.06
1267.78,2.16
1280.45,2.25
1293.26,2.35
1306.19,2.44
1319.25,2.54
1332.45,2.64
1345.77,2.74
1359.23,2.84
1372.82,2.94
1386.55,3.04
1400.41,3.14
1414.42,3.25
1428.56,3.36
1442.85,3.47
1457.28,3.58
1471.85,3.70
1486.57,3.82
1501.43,3.94
1516.45,4.06
1531.61,4.18
1546.93,4.31
1562.40,4.44
1578.02,4.57
1593.80,4.71
1609.74,4.85
1625.84,4.99
1642.10,5.14
1658.52,5.29
1675.10,5.44
1691.85,5.60
1708.77,5.76
1725.86,5.93
1743.12,6.10
1760.55,6.28
1778.15,6.46
1795.94,6.65
1813.90,6.84
1832.03,7.03
1850.36,7.23
1868.86,7.44
1887.55,7.64
1906.42,7.86
1925.49,8.08
1944.74,8.30
1964.19,8.53
1983.83,8.76
2003.67,8.99
2023.71,9.23
2043.94,9.48
2064.38,9.72
2085.03,9.96
2105.88,10.21
2126.94,10.46
2148.20,10.70
2169.69,10.94
2191.38,11.18
2213.30,11.40
2235.43,11.63
2257.78,11.83
2280.36,12.03
2303.17,12.22
2326.20,12.36
2349.46,12.51
2372.95,12.61
2396.68,12.69
2420.65,12.76
2444.86,12.78
2469.31,12.77
2494.00,12.76
2518.94,12.68
2544.13,12.59
2569.57,12.49
2595.27,12.35
2621.22,12.18
2647.43,12.01
2673.90,11.80
2700.64,11.59
2727.65,11.37
2754.93,11.13
2782.48,10.89
2810.30,10.64
2838.40,10.39
2866.79,10.14
2895.46,9.89
2924.41,9.65
2953.65,9.40
2983.19,9.16
3013.02,8.92
3043.15,8.70
3073.58,8.47
3104.32,8.27
3135.36,8.07
3166.72,7.89
3198.38,7.72
3230.37,7.55
3262.67,7.39
3295.30,7.24
3328.25,7.09
3361.53,6.95
3395.15,6.82
3429.10,6.68
3463.39,6.55
3498.03,6.43
3533.01,6.31
3568.34,6.20
3604.02,6.09
3640.06,5.98
3676.46,5.89
3713.22,5.81
3750.36,5.72
3787.86,5.66
3825.74,5.60
3864.00,5.54
3902.64,5.50
3941.66,5.46
3981.08,5.42
4020.89,5.40
4061.10,5.38
4101.71,5.37
4142.73,5.37
4184.15,5.37
4226.00,5.38
4268.26,5.40
4310.94,5.44
4354.05,5.47
4397.59,5.54
4441.56,5.62
4485.98,5.70
4530.84,5.82
4576.15,5.95
4621.91,6.09
4668.13,6.27
4714.81,6.45
4761.96,6.63
4809.58,6.80
4857.67,6.97
4906.25,7.11
4955.31,7.22
5004.87,7.33
5054.91,7.36
5105.46,7.40
5156.52,7.42
5208.08,7.36
5260.16,7.30
5312.77,7.22
5365.89,7.06
5419.55,6.91
5473.75,6.72
5528.49,6.50
5583.77,6.27
5639.61,6.02
5696.00,5.77
5752.96,5.51
5810.49,5.26
5868.60,5.03
5927.28,4.81
5986.56,4.58
6046.42,4.41
6106.89,4.26
6167.96,4.13
6229.64,4.02
6291.93,3.92
6354.85,3.82
6418.40,3.71
6482.58,3.60
6547.41,3.51
6612.88,3.42
6679.01,3.33
6745.80,3.30
6813.26,3.29
6881.39,3.28
6950.21,3.37
7019.71,3.49
7089.91,3.61
7160.81,3.87
7232.41,4.16
7304.74,4.45
7377.79,4.93
7451.56,5.40
7526.08,5.95
7601.34,6.62
7677.35,7.29
7754.13,7.95
7831.67,8.51
7909.98,9.06
7989.08,9.61
8068.98,9.59
8149.67,9.47
8231.16,9.35
8313.47,8.65
8396.61,7.78
8480.57,6.91
8565.38,5.83
8651.03,4.68
8737.54,3.52
8824.92,2.52
8913.17,1.53
9002.30,0.56
9092.32,-0.18
9183.25,-0.92
9275.08,-1.62
9367.83,-2.24
9461.51,-2.86
9556.12,-3.26
9651.68,-3.52
9748.20,-3.79
9845.68,-3.49
9944.14,-3.18
10043.58,-2.75
10144.02,-2.14
10245.46,-1.54
10347.91,-0.83
10451.39,-0.01
10555.91,0.81
10661.46,1.76
10768.08,2.81
10875.76,3.85
10984.52,5.03
11094.36,6.26
11205.31,7.48
11317.36,8.74
11430.53,9.99
11544.84,11.16
11660.29,12.21
11776.89,13.25
11894.66,13.78
12013.60,14.19
12133.74,14.60
12255.08,14.55
12377.63,13.93
12501.41,13.31
12626.42,12.06
12752.68,10.80
12880.21,9.68
13009.01,8.63
13139.10,7.58
13270.49,6.80
13403.20,6.24
13537.23,5.67
13672.60,5.28
13809.33,5.04
13947.42,4.79
14086.90,4.71
14227.77,4.74
14370.04,4.77
14513.74,4.81
14658.88,4.97
14805.47,5.12
14953.52,5.27
15103.06,5.04
15254.09,4.65
15406.63,4.25
15560.70,3.44
15716.30,1.99
15873.47,0.54
16032.20,-0.87
16192.52,-2.14
16354.45,-3.41
16517.99,-4.55
16683.17,-4.62
16850.01,-4.70
17018.51,-4.72
17188.69,-4.26
17360.58,-3.79
17534.18,-3.36
17709.53,-3.02
17886.62,-2.69
18065.49,-2.65
18246.14,-3.13
18428.60,-3.60
18612.89,-4.61
18799.02,-5.95
18987.01,-7.30
19176.88,-8.80
19368.65,-10.31
19562.33,-11.67
19757.96,-12.74
19955.54,-13.80
