frequency,raw
20.00,8.44
20.20,8.48
20.40,8.51
20.61,8.54
20.81,8.58
21.02,8.61
21.23,8.65
21.44,8.68
21.66,8.72
21.87,8.76
22.09,8.79
22.31,8.82
22.54,8.86
22.76,8.89
22.99,8.92
23.22,8.95
23.45,8.98
23.69,9.00
23.92,9.03
24.16,9.06
24.40,9.08
24.65,9.10
24.89,9.13
25.14,9.15
25.39,9.17
25.65,9.19
25.91,9.21
26.16,9.23
26.43,9.25
26.69,9.27
26.96,9.29
27.23,9.31
27.50,9.32
27.77,9.34
28.05,9.35
28.33,9.36
28.62,9.38
28.90,9.39
29.19,9.40
29.48,9.41
29.78,9.42
30.08,9.43
30.38,9.44
30.68,9.45
30.99,9.46
31.30,9.46
31.61,9.47
31.93,9.48
32.24,9.48
32.57,9.49
32.89,9.49
33.22,9.49
33.55,9.49
33.89,9.49
34.23,9.49
34.57,9.49
34.92,9.49
35.27,9.49
35.62,9.49
35.97,9.48
36.33,9.48
36.70,9.47
37.06,9.47
37.43,9.46
37.81,9.46
38.19,9.45
38.57,9.44
38.95,9.43
39.34,9.42
39.74,9.41
40.14,9.40
40.54,9.39
40.94,9.38
41.35,9.36
41.76,9.35
42.18,9.34
42.60,9.32
43.03,9.30
43.46,9.29
43.90,9.27
44.33,9.25
44.78,9.23
45.23,9.22
45.68,9.20
46.13,9.18
46.60,9.15
47.06,9.13
47.53,9.11
48.01,9.08
48.49,9.06
48.97,9.04
49.46,9.01
49.96,8.98
50.46,8.96
50.96,8.93
51.47,8.90
51.99,8.87
52.51,8.84
53.03,8.81
53.56,8.78
54.10,8.75
54.64,8.71
55.18,8.68
55.74,8.65
56.29,8.61
56.86,8.58
57.42,8.54
58.00,8.50
58.58,8.47
59.16,8.43
59.76,8.39
60.35,8.35
60.96,8.31
61.57,8.27
62.18,8.23
62.80,8.18
63.43,8.14
64.07,8.10
64.71,8.05
65.35,8.01
66.01,7.96
66.67,7.92
67.33,7.87
68.01,7.82
68.69,7.77
69.37,7.72
70.07,7.67
70.77,7.62
71.48,7.57
72.19,7.52
72.91,7.47
73.64,7.41
74.38,7.36
75.12,7.30
75.87,7.25
76.63,7.19
77.40,7.14
78.17,7.08
78.95,7.02
79.74,6.97
80.54,6.91
81.35,6.85
82.16,6.79
82.98,6.73
83.81,6.67
84.65,6.60
85.50,6.54
86.35,6.48
87.22,6.42
88.09,6.35
88.97,6.29
89.86,6.22
90.76,6.16
91.66,6.09
92.58,6.02
93.51,5.96
94.44,5.89
95.39,5.82
96.34,5.75
97.30,5.68
98.28,5.61
99.26,5.54
100.25,5.47
101.25,5.40
102.27,5.33
103.29,5.26
104.32,5.19
105.37,5.11
106.42,5.04
107.48,4.97
108.56,4.89
109.64,4.82
110.74,4.74
111.85,4.67
112.97,4.59
114.10,4.52
115.24,4.44
116.39,4.36
117.55,4.29
118.73,4.21
119.92,4.13
121.12,4.06
122.33,3.98
123.55,3.90
124.79,3.82
126.03,3.74
127.29,3.67
128.57,3.59
129.85,3.51
131.15,3.43
132.46,3.35
133.79,3.27
135.12,3.19
136.48,3.11
137.84,3.03
139.22,2.95
140.61,2.87
142.02,2.79
143.44,2.71
144.87,2.63
146.32,2.55
147.78,2.47
149.26,2.39
150.75,2.30
152.26,2.22
153.78,2.14
155.32,2.06
156.88,1.98
158.44,1.90
160.03,1.82
161.63,1.73
163.24,1.65
164.88,1.57
166.53,1.49
168.19,1.40
169.87,1.32
171.57,1.24
173.29,1.16
175.02,1.07
176.77,1.00
178.54,0.92
180.32,0.84
182.13,0.78
183.95,0.72
185.79,0.67
187.65,0.61
189.52,0.56
191.42,0.50
193.33,0.43
195.27,0.37
197.22,0.29
199.19,0.21
201.18,0.14
203.19,0.07
205.23,-0.00
207.28,-0.06
209.35,-0.11
211.44,-0.16
213.56,-0.21
215.69,-0.27
217.85,-0.32
220.03,-0.38
222.23,-0.45
224.45,-0.51
226.70,-0.58
228.96,-0.65
231.25,-0.71
233.57,-0.78
235.90,-0.85
238.26,-0.91
240.64,-0.97
243.05,-1.04
245.48,-1.10
247.93,-1.16
250.41,-1.22
252.92,-1.27
255.45,-1.33
258.00,-1.39
260.58,-1.44
263.19,-1.50
265.82,-1.55
268.48,-1.60
271.16,-1.66
273.87,-1.71
276.61,-1.76
279.38,-1.80
282.17,-1.85
284.99,-1.90
287.84,-1.94
290.72,-1.99
293.63,-2.03
296.57,-2.08
299.53,-2.12
302.53,-2.16
305.55,-2.20
308.61,-2.24
311.69,-2.28
314.81,-2.31
317.96,-2.35
321.14,-2.38
324.35,-2.42
327.59,-2.45
330.87,-2.48
334.18,-2.51
337.52,-2.54
340.90,-2.57
344.30,-2.60
347.75,-2.63
351.23,-2.65
354.74,-2.68
358.28,-2.70
361.87,-2.73
365.49,-2.75
369.14,-2.77
372.83,-2.79
376.56,-2.81
380.33,-2.83
384.13,-2.84
387.97,-2.86
391.85,-2.87
395.77,-2.89
399.73,-2.90
403.72,-2.91
407.76,-2.92
411.84,-2.93
415.96,-2.94
420.12,-2.94
424.32,-2.95
428.56,-2.95
432.85,-2.96
437.18,-2.96
441.55,-2.97
445.96,-2.97
450.42,-2.97
454.93,-2.97
459.48,-2.98
464.07,-2.98
468.71,-2.97
473.40,-2.97
478.13,-2.97
482.91,-2.97
487.74,-2.97
492.62,-2.96
497.55,-2.96
502.52,-2.95
507.55,-2.94
512.62,-2.94
517.75,-2.93
522.93,-2.92
528.16,-2.91
533.44,-2.90
538.77,-2.89
544.16,-2.88
549.60,-2.86
555.10,-2.85
560.65,-2.83
566.25,-2.82
571.92,-2.80
577.64,-2.79
583.41,-2.77
589.25,-2.75
595.14,-2.73
601.09,-2.71
607.10,-2.69
613.17,-2.67
619.30,-2.64
625.50,-2.62
631.75,-2.60
638.07,-2.57
644.45,-2.54
650.89,-2.52
657.40,-2.49
663.98,-2.46
670.62,-2.43
677.32,-2.40
684.10,-2.36
690.94,-2.33
697.85,-2.29
704.83,-2.26
711.87,-2.22
718.99,-2.18
726.18,-2.14
733.44,-2.10
740.78,-2.06
748.19,-2.01
755.67,-1.97
763.23,-1.92
770.86,-1.87
778.57,-1.82
786.35,-1.77
794.22,-1.72
802.16,-1.67
810.18,-1.61
818.28,-1.55
826.46,-1.49
834.73,-1.43
843.08,-1.37
851.51,-1.30
860.02,-1.24
868.62,-1.17
877.31,-1.10
886.08,-1.02
894.94,-0.95
903.89,-0.87
912.93,-0.80
922.06,-0.72
931.28,-0.63
940.59,-0.55
950.00,-0.47
959.50,-0.38
969.09,-0.29
978.78,-0.20
988.57,-0.11
998.46,-0.01
1008.44,0.08
1018.53,0.17
1028.71,0.27
1039.00,0.36
1049.39,0.46
1059.88,0.56
1070.48,0.65
1081.19,0.75
1092.00,0.84
1102.92,0.93
1113.95,1.02
1125.09,1.12
1136.34,1.20
1147.70,1.29
1159.18,1.38
1170.77,1.47
1182.48,1.55
1194.30,1.63
1206.25,1.72
1218.31,1.80
1230.49,1.87
1242.80,1.95
1255.22,2.02
1267.78,2.09
1280.45,2.16
1293.26,2.23
1306.19,2.30
1319.25,2.36
1332.45,2.42
1345.77,2.48
1359.23,2.54
1372.82,2.60
1386.55,2.66
1400.41,2.71
1414.42,2.77
1428.56,2.82
1442.85,2.87
1457.28,2.93
1471.85,2.98
1486.57,3.03
1501.43,3.08
1516.45,3.13
1531.61,3.18
1546.93,3.23
1562.40,3.28
1578.02,3.33
1593.80,3.38
1609.74,3.43
1625.84,3.48
1642.10,3.53
1658.52,3.58
1675.10,3.63
1691.85,3.68
1708.77,3.73
1725.86,3.78
1743.12,3.83
1760.55,3.89
1778.15,3.94
1795.94,3.99
1813.90,4.05
1832.03,4.10
1850.36,4.16
1868.86,4.21
1887.55,4.27
1906.42,4.33
1925.49,4.39
1944.74,4.45
1964.19,4.52
1983.83,4.58
2003.67,4.65
2023.71,4.72
2043.94,4.80
2064.38,4.87
2085.03,4.96
2105.88,5.04
2126.94,5.13
2148.20,5.23
2169.69,5.34
2191.38,5.45
2213.30,5.57
2235.43,5.70
2257.78,5.83
2280.36,5.97
2303.17,6.12
2326.20,6.26
2349.46,6.41
2372.95,6.56
2396.68,6.71
2420.65,6.86
2444.86,7.00
2469.31,7.13
2494.00,7.27
2518.94,7.38
2544.13,7.48
2569.57,7.58
2595.27,7.66
2621.22,7.73
2647.43,7.79
2673.90,7.84
2700.64,7.89
2727.65,7.93
2754.93,7.97
2782.48,8.01
2810.30,8.04
2838.40,8.07
2866.79,8.10
2895.46,8.13
2924.41,8.12
2953.65,8.11
2983.19,8.10
3013.02,8.06
3043.15,8.01
3073.58,7.94
3104.32,7.86
3135.36,7.77
3166.72,7.67
3198.38,7.56
3230.37,7.45
3262.67,7.34
3295.30,7.21
3328.25,7.09
3361.53,6.97
3395.15,6.84
3429.10,6.70
3463.39,6.57
3498.03,6.43
3533.01,6.29
3568.34,6.16
3604.02,6.02
3640.06,5.88
3676.46,5.74
3713.22,5.60
3750.36,5.46
3787.86,5.32
3825.74,5.19
3864.00,5.06
3902.64,4.93
3941.66,4.81
3981.08,4.69
4020.89,4.58
4061.10,4.47
4101.71,4.36
4142.73,4.27
4184.15,4.18
4226.00,4.10
4268.26,4.03
4310.94,3.97
4354.05,3.91
4397.59,3.88
4441.56,3.85
4485.98,3.83
4530.84,3.82
4576.15,3.82
4621.91,3.83
4668.13,3.85
4714.81,3.87
4761.96,3.90
4809.58,3.94
4857.67,3.98
4906.25,4.03
4955.31,4.08
5004.87,4.13
5054.91,4.19
5105.46,4.25
5156.52,4.31
5208.08,4.37
5260.16,4.43
5312.77,4.49
5365.89,4.56
5419.55,4.63
5473.75,4.69
5528.49,4.76
5583.77,4.83
5639.61,4.89
5696.00,4.95
5752.96,5.00
5810.49,5.06
5868.60,5.11
5927.28,5.17
5986.56,5.22
6046.42,5.27
6106.89,5.32
6167.96,5.38
6229.64,5.44
6291.93,5.50
6354.85,5.58
6418.40,5.65
6482.58,5.73
6547.41,5.82
6612.88,5.90
6679.01,5.99
6745.80,6.07
6813.26,6.16
6881.39,6.24
6950.21,6.31
7019.71,6.38
7089.91,6.44
7160.81,6.50
7232.41,6.54
7304.74,6.59
7377.79,6.62
7451.56,6.65
7526.08,6.66
7601.34,6.65
7677.35,6.63
7754.13,6.61
7831.67,6.51
7909.98,6.41
7989.08,6.30
8068.98,6.08
8149.67,5.83
8231.16,5.59
8313.47,5.20
8396.61,4.76
8480.57,4.33
8565.38,3.75
8651.03,3.14
8737.54,2.53
8824.92,1.83
8913.17,1.11
9002.30,0.40
9092.32,-0.32
9183.25,-1.05
9275.08,-1.75
9367.83,-2.41
9461.51,-3.07
9556.12,-3.67
9651.68,-4.22
9748.20,-4.78
9845.68,-5.20
9944.14,-5.63
10043.58,-5.99
10144.02,-6.27
10245.46,-6.56
10347.91,-6.77
10451.39,-6.89
10555.91,-7.02
10661.46,-7.06
10768.08,-7.03
10875.76,-7.00
10984.52,-6.86
11094.36,-6.68
11205.31,-6.50
11317.36,-6.19
11430.53,-5.89
11544.84,-5.55
11660.29,-5.16
11776.89,-4.77
11894.66,-4.39
12013.60,-4.00
12133.74,-3.61
12255.08,-3.27
12377.63,-2.98
12501.41,-2.69
12626.42,-2.57
12752.68,-2.45
12880.21,-2.49
13009.01,-2.62
13139.10,-2.76
13270.49,-3.07
13403.20,-3.52
13537.23,-3.98
13672.60,-4.56
13809.33,-5.23
13947.42,-5.91
14086.90,-6.59
14227.77,-7.28
14370.04,-7.97
14513.74,-8.63
14658.88,-8.91
14805.47,-9.19
14953.52,-9.48
15103.06,-9.20
15254.09,-8.67
15406.63,-8.14
15560.70,-7.62
15716.30,-7.11
15873.47,-6.61
16032.20,-6.21
16192.52,-6.26
16354.45,-6.31
16517.99,-6.34
16683.17,-6.24
16850.01,-6.13
17018.51,-6.01
17188.69,-5.77
17360.58,-5.54
17534.18,-5.58
17709.53,-6.71
17886.62,-7.84
18065.49,-9.29
18246.14,-11.30
18428.60,-13.31
18612.89,-14.32
18799.02,-14.70
18987.01,-15.07
19176.88,-15.05
19368.65,-14.99
19562.33,-15.04
19757.96,-15.29
19955.54,-15.55
