frequency,raw
20.00,9.66
20.20,9.70
20.40,9.74
20.61,9.78
20.81,9.82
21.02,9.86
21.23,9.90
21.44,9.94
21.66,9.98
21.87,10.02
22.09,10.06
22.31,10.10
22.54,10.14
22.76,10.18
22.99,10.21
23.22,10.25
23.45,10.28
23.69,10.32
23.92,10.35
24.16,10.38
24.40,10.42
24.65,10.45
24.89,10.48
25.14,10.51
25.39,10.53
25.65,10.56
25.91,10.59
26.16,10.62
26.43,10.64
26.69,10.67
26.96,10.69
27.23,10.71
27.50,10.74
27.77,10.76
28.05,10.78
28.33,10.80
28.62,10.82
28.90,10.84
29.19,10.86
29.48,10.88
29.78,10.89
30.08,10.91
30.38,10.92
30.68,10.94
30.99,10.95
31.30,10.97
31.61,10.98
31.93,10.99
32.24,11.00
32.57,11.01
32.89,11.02
33.22,11.03
33.55,11.04
33.89,11.05
34.23,11.06
34.57,11.06
34.92,11.07
35.27,11.07
35.62,11.08
35.97,11.08
36.33,11.08
36.70,11.09
37.06,11.09
37.43,11.09
37.81,11.09
38.19,11.09
38.57,11.09
38.95,11.08
39.34,11.08
39.74,11.08
40.14,11.07
40.54,11.07
40.94,11.06
41.35,11.06
41.76,11.05
42.18,11.04
42.60,11.04
43.03,11.03
43.46,11.02
43.90,11.01
44.33,11.00
44.78,10.98
45.23,10.97
45.68,10.96
46.13,10.95
46.60,10.93
47.06,10.92
47.53,10.90
48.01,10.88
48.49,10.87
48.97,10.85
49.46,10.83
49.96,10.81
50.46,10.79
50.96,10.77
51.47,10.75
51.99,10.73
52.51,10.71
53.03,10.68
53.56,10.66
54.10,10.64
54.64,10.61
55.18,10.58
55.74,10.56
56.29,10.53
56.86,10.50
57.42,10.47
58.00,10.45
58.58,10.41
59.16,10.38
59.76,10.35
60.35,10.32
60.96,10.29
61.57,10.25
62.18,10.22
62.80,10.19
63.43,10.15
64.07,10.11
64.71,10.08
65.35,10.04
66.01,10.00
66.67,9.96
67.33,9.92
68.01,9.88
68.69,9.84
69.37,9.80
70.07,9.76
70.77,9.72
71.48,9.67
72.19,9.63
72.91,9.58
73.64,9.54
74.38,9.49
75.12,9.45
75.87,9.40
76.63,9.35
77.40,9.30
78.17,9.25
78.95,9.20
79.74,9.15
80.54,9.10
81.35,9.05
82.16,8.99
82.98,8.94
83.81,8.89
84.65,8.83
85.50,8.78
86.35,8.72
87.22,8.67
88.09,8.61
88.97,8.55
89.86,8.49
90.76,8.43
91.66,8.37
92.58,8.31
93.51,8.25
94.44,8.19
95.39,8.13
96.34,8.07
97.30,8.01
98.28,7.94
99.26,7.88
100.25,7.81
101.25,7.75
102.27,7.68
103.29,7.61
104.32,7.55
105.37,7.48
106.42,7.41
107.48,7.34
108.56,7.27
109.64,7.20
110.74,7.13
111.85,7.06
112.97,6.99
114.10,6.92
115.24,6.84
116.39,6.77
117.55,6.70
118.73,6.62
119.92,6.55
121.12,6.47
122.33,6.40
123.55,6.32
124.79,6.24
126.03,6.16
127.29,6.09
128.57,6.01
129.85,5.93
131.15,5.85
132.46,5.78
133.79,5.70
135.12,5.62
136.48,5.55
137.84,5.47
139.22,5.40
140.61,5.32
142.02,5.24
143.44,5.17
144.87,5.09
146.32,5.01
147.78,4.93
149.26,4.85
150.75,4.77
152.26,4.69
153.78,4.61
155.32,4.53
156.88,4.44
158.44,4.36
160.03,4.28
161.63,4.20
163.24,4.12
164.88,4.04
166.53,3.96
168.19,3.89
169.87,3.82
171.57,3.75
173.29,3.68
175.02,3.62
176.77,3.55
178.54,3.48
180.32,3.42
182.13,3.35
183.95,3.28
185.79,3.21
187.65,3.14
189.52,3.06
191.42,2.99
193.33,2.91
195.27,2.83
197.22,2.75
199.19,2.67
201.18,2.59
203.19,2.51
205.23,2.43
207.28,2.35
209.35,2.26
211.44,2.18
213.56,2.10
215.69,2.02
217.85,1.94
220.03,1.86
222.23,1.78
224.45,1.70
226.70,1.62
228.96,1.55
231.25,1.47
233.57,1.39
235.90,1.32
238.26,1.24
240.64,1.17
243.05,1.09
245.48,1.02
247.93,0.94
250.41,0.87
252.92,0.80
255.45,0.73
258.00,0.66
260.58,0.59
263.19,0.52
265.82,0.45
268.48,0.38
271.16,0.31
273.87,0.24
276.61,0.17
279.38,0.11
282.17,0.04
284.99,-0.02
287.84,-0.09
290.72,-0.15
293.63,-0.21
296.57,-0.27
299.53,-0.34
302.53,-0.40
305.55,-0.46
308.61,-0.51
311.69,-0.57
314.81,-0.63
317.96,-0.68
321.14,-0.74
324.35,-0.79
327.59,-0.85
330.87,-0.90
334.18,-0.95
337.52,-1.00
340.90,-1.05
344.30,-1.10
347.75,-1.14
351.23,-1.19
354.74,-1.24
358.28,-1.28
361.87,-1.33
365.49,-1.37
369.14,-1.41
372.83,-1.45
376.56,-1.49
380.33,-1.53
384.13,-1.57
387.97,-1.61
391.85,-1.64
395.77,-1.68
399.73,-1.71
403.72,-1.74
407.76,-1.78
411.84,-1.81
415.96,-1.84
420.12,-1.87
424.32,-1.90
428.56,-1.92
432.85,-1.95
437.18,-1.97
441.55,-1.99
445.96,-2.01
450.42,-2.03
454.93,-2.04
459.48,-2.06
464.07,-2.07
468.71,-2.09
473.40,-2.10
478.13,-2.12
482.91,-2.13
487.74,-2.15
492.62,-2.16
497.55,-2.17
502.52,-2.18
507.55,-2.19
512.62,-2.19
517.75,-2.19
522.93,-2.19
528.16,-2.19
533.44,-2.19
538.77,-2.19
544.16,-2.19
549.60,-2.19
555.10,-2.19
560.65,-2.19
566.25,-2.18
571.92,-2.18
577.64,-2.18
583.41,-2.18
589.25,-2.17
595.14,-2.17
601.09,-2.16
607.10,-2.16
613.17,-2.15
619.30,-2.14
625.50,-2.13
631.75,-2.12
638.07,-2.11
644.45,-2.09
650.89,-2.08
657.40,-2.06
663.98,-2.05
670.62,-2.03
677.32,-2.01
684.10,-1.99
690.94,-1.97
697.85,-1.95
704.83,-1.92
711.87,-1.90
718.99,-1.87
726.18,-1.84
733.44,-1.82
740.78,-1.78
748.19,-1.75
755.67,-1.72
763.23,-1.68
770.86,-1.64
778.57,-1.60
786.35,-1.56
794.22,-1.52
802.16,-1.47
810.18,-1.43
818.28,-1.38
826.46,-1.33
834.73,-1.27
843.08,-1.22
851.51,-1.17
860.02,-1.11
868.62,-1.05
877.31,-0.99
886.08,-0.92
894.94,-0.86
903.89,-0.79
912.93,-0.72
922.06,-0.65
931.28,-0.58
940.59,-0.50
950.00,-0.42
959.50,-0.34
969.09,-0.26
978.78,-0.18
988.57,-0.10
998.46,-0.01
1008.44,0.07
1018.53,0.16
1028.71,0.25
1039.00,0.33
1049.39,0.42
1059.88,0.51
1070.48,0.59
1081.19,0.68
1092.00,0.77
1102.92,0.85
1113.95,0.93
1125.09,1.01
1136.34,1.09
1147.70,1.17
1159.18,1.25
1170.77,1.33
1182.48,1.41
1194.30,1.48
1206.25,1.55
1218.31,1.62
1230.49,1.69
1242.80,1.76
1255.22,1.83
1267.78,1.89
1280.45,1.96
1293.26,2.02
1306.19,2.07
1319.25,2.13
1332.45,2.19
1345.77,2.24
1359.23,2.30
1372.82,2.35
1386.55,2.40
1400.41,2.45
1414.42,2.50
1428.56,2.55
1442.85,2.60
1457.28,2.64
1471.85,2.69
1486.57,2.73
1501.43,2.78
1516.45,2.82
1531.61,2.87
1546.93,2.91
1562.40,2.96
1578.02,3.00
1593.80,3.05
1609.74,3.10
1625.84,3.14
1642.10,3.19
1658.52,3.24
1675.10,3.29
1691.85,3.34
1708.77,3.39
1725.86,3.44
1743.12,3.50
1760.55,3.56
1778.15,3.61
1795.94,3.67
1813.90,3.73
1832.03,3.79
1850.36,3.84
1868.86,3.90
1887.55,3.95
1906.42,4.01
1925.49,4.06
1944.74,4.12
1964.19,4.18
1983.83,4.24
2003.67,4.29
2023.71,4.36
2043.94,4.42
2064.38,4.49
2085.03,4.57
2105.88,4.65
2126.94,4.73
2148.20,4.83
2169.69,4.93
2191.38,5.04
2213.30,5.15
2235.43,5.27
2257.78,5.40
2280.36,5.54
2303.17,5.68
2326.20,5.83
2349.46,5.98
2372.95,6.14
2396.68,6.30
2420.65,6.46
2444.86,6.62
2469.31,6.79
2494.00,6.96
2518.94,7.13
2544.13,7.30
2569.57,7.47
2595.27,7.65
2621.22,7.81
2647.43,7.98
2673.90,8.14
2700.64,8.30
2727.65,8.45
2754.93,8.58
2782.48,8.71
2810.30,8.82
2838.40,8.88
2866.79,8.95
2895.46,9.01
2924.41,9.00
2953.65,8.97
2983.19,8.94
3013.02,8.89
3043.15,8.79
3073.58,8.70
3104.32,8.57
3135.36,8.45
3166.72,8.31
3198.38,8.17
3230.37,8.03
3262.67,7.88
3295.30,7.72
3328.25,7.56
3361.53,7.40
3395.15,7.24
3429.10,7.07
3463.39,6.91
3498.03,6.74
3533.01,6.57
3568.34,6.40
3604.02,6.23
3640.06,6.07
3676.46,5.90
3713.22,5.74
3750.36,5.58
3787.86,5.44
3825.74,5.29
3864.00,5.14
3902.64,5.02
3941.66,4.90
3981.08,4.77
4020.89,4.66
4061.10,4.56
4101.71,4.46
4142.73,4.37
4184.15,4.29
4226.00,4.21
4268.26,4.14
4310.94,4.09
4354.05,4.03
4397.59,4.00
4441.56,3.99
4485.98,3.97
4530.84,3.98
4576.15,4.00
4621.91,4.03
4668.13,4.09
4714.81,4.15
4761.96,4.21
4809.58,4.30
4857.67,4.39
4906.25,4.49
4955.31,4.59
5004.87,4.69
5054.91,4.80
5105.46,4.90
5156.52,5.00
5208.08,5.11
5260.16,5.21
5312.77,5.32
5365.89,5.44
5419.55,5.56
5473.75,5.69
5528.49,5.82
5583.77,5.96
5639.61,6.09
5696.00,6.22
5752.96,6.35
5810.49,6.48
5868.60,6.60
5927.28,6.73
5986.56,6.85
6046.42,6.98
6106.89,7.10
6167.96,7.22
6229.64,7.35
6291.93,7.47
6354.85,7.60
6418.40,7.73
6482.58,7.86
6547.41,7.98
6612.88,8.10
6679.01,8.23
6745.80,8.32
6813.26,8.40
6881.39,8.47
6950.21,8.48
7019.71,8.47
7089.91,8.46
7160.81,8.34
7232.41,8.21
7304.74,8.06
7377.79,7.79
7451.56,7.53
7526.08,7.21
7601.34,6.79
7677.35,6.37
7754.13,5.95
7831.67,5.38
7909.98,4.82
7989.08,4.25
8068.98,3.60
8149.67,2.93
8231.16,2.26
8313.47,1.55
8396.61,0.82
8480.57,0.10
8565.38,-0.62
8651.03,-1.34
8737.54,-2.06
8824.92,-2.73
8913.17,-3.40
9002.30,-4.06
9092.32,-4.63
9183.25,-5.20
9275.08,-5.75
9367.83,-6.21
9461.51,-6.66
9556.12,-7.04
9651.68,-7.37
9748.20,-7.69
9845.68,-7.88
9944.14,-8.07
10043.58,-8.20
10144.02,-8.25
10245.46,-8.30
10347.91,-8.29
10451.39,-8.21
10555.91,-8.12
10661.46,-7.95
10768.08,-7.73
10875.76,-7.50
10984.52,-7.18
11094.36,-6.83
11205.31,-6.47
11317.36,-6.00
11430.53,-5.54
11544.84,-5.06
11660.29,-4.54
11776.89,-4.02
11894.66,-3.53
12013.60,-3.06
12133.74,-2.58
12255.08,-2.18
12377.63,-1.86
12501.41,-1.55
12626.42,-1.43
12752.68,-1.31
12880.21,-1.37
13009.01,-1.53
13139.10,-1.69
13270.49,-2.02
13403.20,-2.50
13537.23,-2.98
13672.60,-3.56
13809.33,-4.23
13947.42,-4.90
14086.90,-5.49
14227.77,-6.03
14370.04,-6.57
14513.74,-7.05
14658.88,-6.99
14805.47,-6.92
14953.52,-6.86
15103.06,-6.56
15254.09,-6.16
15406.63,-5.77
15560.70,-5.51
15716.30,-5.49
15873.47,-5.46
16032.20,-5.51
16192.52,-5.87
16354.45,-6.23
16517.99,-6.56
16683.17,-6.74
16850.01,-6.91
17018.51,-7.04
17188.69,-6.80
17360.58,-6.56
17534.18,-6.52
17709.53,-7.30
17886.62,-8.07
18065.49,-8.84
18246.14,-9.62
18428.60,-10.40
18612.89,-10.77
18799.02,-10.89
18987.01,-11.00
19176.88,-11.57
19368.65,-12.19
19562.33,-12.86
19757.96,-13.68
19955.54,-14.49
