frequency,raw
20.00,10.44
20.20,10.48
20.40,10.52
20.61,10.56
20.81,10.60
21.02,10.64
21.23,10.68
21.44,10.73
21.66,10.77
21.87,10.81
22.09,10.85
22.31,10.89
22.54,10.93
22.76,10.97
22.99,11.00
23.22,11.04
23.45,11.08
23.69,11.11
23.92,11.14
24.16,11.18
24.40,11.21
24.65,11.24
24.89,11.27
25.14,11.30
25.39,11.33
25.65,11.36
25.91,11.38
26.16,11.41
26.43,11.44
26.69,11.46
26.96,11.49
27.23,11.51
27.50,11.53
27.77,11.56
28.05,11.58
28.33,11.60
28.62,11.62
28.90,11.64
29.19,11.66
29.48,11.68
29.78,11.70
30.08,11.71
30.38,11.73
30.68,11.74
30.99,11.76
31.30,11.77
31.61,11.79
31.93,11.80
32.24,11.81
32.57,11.82
32.89,11.83
33.22,11.84
33.55,11.85
33.89,11.86
34.23,11.87
34.57,11.87
34.92,11.88
35.27,11.89
35.62,11.89
35.97,11.90
36.33,11.90
36.70,11.91
37.06,11.91
37.43,11.91
37.81,11.91
38.19,11.91
38.57,11.91
38.95,11.91
39.34,11.91
39.74,11.90
40.14,11.90
40.54,11.90
40.94,11.89
41.35,11.89
41.76,11.88
42.18,11.87
42.60,11.87
43.03,11.86
43.46,11.85
43.90,11.84
44.33,11.83
44.78,11.82
45.23,11.81
45.68,11.80
46.13,11.79
46.60,11.78
47.06,11.76
47.53,11.75
48.01,11.74
48.49,11.72
48.97,11.70
49.46,11.69
49.96,11.67
50.46,11.65
50.96,11.63
51.47,11.61
51.99,11.59
52.51,11.57
53.03,11.55
53.56,11.53
54.10,11.51
54.64,11.48
55.18,11.46
55.74,11.43
56.29,11.41
56.86,11.38
57.42,11.35
58.00,11.33
58.58,11.30
59.16,11.27
59.76,11.24
60.35,11.21
60.96,11.18
61.57,11.15
62.18,11.12
62.80,11.09
63.43,11.05
64.07,11.02
64.71,10.98
65.35,10.95
66.01,10.91
66.67,10.87
67.33,10.84
68.01,10.80
68.69,10.76
69.37,10.72
70.07,10.68
70.77,10.64
71.48,10.60
72.19,10.55
72.91,10.51
73.64,10.47
74.38,10.43
75.12,10.38
75.87,10.34
76.63,10.29
77.40,10.25
78.17,10.20
78.95,10.15
79.74,10.10
80.54,10.05
81.35,10.00
82.16,9.95
82.98,9.90
83.81,9.85
84.65,9.80
85.50,9.75
86.35,9.69
87.22,9.64
88.09,9.58
88.97,9.53
89.86,9.47
90.76,9.42
91.66,9.36
92.58,9.30
93.51,9.25
94.44,9.19
95.39,9.13
96.34,9.07
97.30,9.01
98.28,8.95
99.26,8.89
100.25,8.82
101.25,8.76
102.27,8.70
103.29,8.63
104.32,8.57
105.37,8.50
106.42,8.44
107.48,8.37
108.56,8.31
109.64,8.24
110.74,8.17
111.85,8.10
112.97,8.03
114.10,7.96
115.24,7.89
116.39,7.82
117.55,7.75
118.73,7.68
119.92,7.61
121.12,7.53
122.33,7.46
123.55,7.39
124.79,7.31
126.03,7.24
127.29,7.16
128.57,7.08
129.85,7.01
131.15,6.93
132.46,6.86
133.79,6.78
135.12,6.71
136.48,6.63
137.84,6.56
139.22,6.48
140.61,6.41
142.02,6.33
143.44,6.26
144.87,6.18
146.32,6.11
147.78,6.03
149.26,5.95
150.75,5.87
152.26,5.80
153.78,5.72
155.32,5.64
156.88,5.55
158.44,5.47
160.03,5.39
161.63,5.31
163.24,5.23
164.88,5.15
166.53,5.07
168.19,5.00
169.87,4.92
171.57,4.85
173.29,4.79
175.02,4.72
176.77,4.65
178.54,4.58
180.32,4.52
182.13,4.45
183.95,4.38
185.79,4.31
187.65,4.23
189.52,4.16
191.42,4.09
193.33,4.01
195.27,3.93
197.22,3.85
199.19,3.77
201.18,3.69
203.19,3.61
205.23,3.53
207.28,3.44
209.35,3.36
211.44,3.28
213.56,3.19
215.69,3.11
217.85,3.03
220.03,2.95
222.23,2.86
224.45,2.78
226.70,2.70
228.96,2.62
231.25,2.54
233.57,2.46
235.90,2.38
238.26,2.30
240.64,2.23
243.05,2.15
245.48,2.07
247.93,1.99
250.41,1.91
252.92,1.84
255.45,1.76
258.00,1.68
260.58,1.61
263.19,1.53
265.82,1.45
268.48,1.38
271.16,1.31
273.87,1.23
276.61,1.16
279.38,1.09
282.17,1.02
284.99,0.94
287.84,0.87
290.72,0.80
293.63,0.73
296.57,0.67
299.53,0.60
302.53,0.53
305.55,0.46
308.61,0.40
311.69,0.33
314.81,0.27
317.96,0.21
321.14,0.14
324.35,0.08
327.59,0.02
330.87,-0.04
334.18,-0.10
337.52,-0.16
340.90,-0.21
344.30,-0.27
347.75,-0.33
351.23,-0.38
354.74,-0.44
358.28,-0.49
361.87,-0.54
365.49,-0.60
369.14,-0.65
372.83,-0.70
376.56,-0.75
380.33,-0.79
384.13,-0.84
387.97,-0.89
391.85,-0.93
395.77,-0.98
399.73,-1.02
403.72,-1.06
407.76,-1.10
411.84,-1.15
415.96,-1.19
420.12,-1.22
424.32,-1.26
428.56,-1.30
432.85,-1.34
437.18,-1.37
441.55,-1.40
445.96,-1.44
450.42,-1.47
454.93,-1.50
459.48,-1.53
464.07,-1.56
468.71,-1.59
473.40,-1.61
478.13,-1.63
482.91,-1.66
487.74,-1.68
492.62,-1.69
497.55,-1.71
502.52,-1.73
507.55,-1.74
512.62,-1.76
517.75,-1.77
522.93,-1.77
528.16,-1.78
533.44,-1.79
538.77,-1.79
544.16,-1.80
549.60,-1.81
555.10,-1.82
560.65,-1.82
566.25,-1.83
571.92,-1.84
577.64,-1.84
583.41,-1.85
589.25,-1.85
595.14,-1.86
601.09,-1.86
607.10,-1.86
613.17,-1.86
619.30,-1.86
625.50,-1.86
631.75,-1.86
638.07,-1.85
644.45,-1.85
650.89,-1.84
657.40,-1.83
663.98,-1.82
670.62,-1.82
677.32,-1.80
684.10,-1.79
690.94,-1.78
697.85,-1.76
704.83,-1.74
711.87,-1.72
718.99,-1.70
726.18,-1.68
733.44,-1.66
740.78,-1.63
748.19,-1.61
755.67,-1.58
763.23,-1.54
770.86,-1.51
778.57,-1.48
786.35,-1.44
794.22,-1.41
802.16,-1.37
810.18,-1.32
818.28,-1.28
826.46,-1.24
834.73,-1.19
843.08,-1.14
851.51,-1.09
860.02,-1.04
868.62,-0.99
877.31,-0.93
886.08,-0.87
894.94,-0.81
903.89,-0.75
912.93,-0.68
922.06,-0.62
931.28,-0.55
940.59,-0.47
950.00,-0.40
959.50,-0.33
969.09,-0.25
978.78,-0.17
988.57,-0.09
998.46,-0.01
1008.44,0.07
1018.53,0.15
1028.71,0.23
1039.00,0.32
1049.39,0.40
1059.88,0.49
1070.48,0.57
1081.19,0.65
1092.00,0.74
1102.92,0.82
1113.95,0.90
1125.09,0.97
1136.34,1.05
1147.70,1.13
1159.18,1.20
1170.77,1.28
1182.48,1.35
1194.30,1.42
1206.25,1.49
1218.31,1.56
1230.49,1.63
1242.80,1.69
1255.22,1.76
1267.78,1.82
1280.45,1.88
1293.26,1.94
1306.19,1.99
1319.25,2.05
1332.45,2.10
1345.77,2.16
1359.23,2.21
1372.82,2.26
1386.55,2.31
1400.41,2.36
1414.42,2.40
1428.56,2.45
1442.85,2.49
1457.28,2.54
1471.85,2.58
1486.57,2.63
1501.43,2.67
1516.45,2.71
1531.61,2.76
1546.93,2.80
1562.40,2.85
1578.02,2.89
1593.80,2.93
1609.74,2.98
1625.84,3.02
1642.10,3.07
1658.52,3.12
1675.10,3.16
1691.85,3.21
1708.77,3.26
1725.86,3.32
1743.12,3.37
1760.55,3.43
1778.15,3.48
1795.94,3.54
1813.90,3.60
1832.03,3.65
1850.36,3.71
1868.86,3.77
1887.55,3.82
1906.42,3.88
1925.49,3.93
1944.74,3.99
1964.19,4.05
1983.83,4.11
2003.67,4.17
2023.71,4.23
2043.94,4.29
2064.38,4.36
2085.03,4.44
2105.88,4.52
2126.94,4.60
2148.20,4.69
2169.69,4.79
2191.38,4.90
2213.30,5.01
2235.43,5.13
2257.78,5.26
2280.36,5.39
2303.17,5.53
2326.20,5.68
2349.46,5.83
2372.95,5.98
2396.68,6.14
2420.65,6.30
2444.86,6.46
2469.31,6.63
2494.00,6.80
2518.94,6.97
2544.13,7.14
2569.57,7.31
2595.27,7.48
2621.22,7.64
2647.43,7.81
2673.90,7.97
2700.64,8.13
2727.65,8.27
2754.93,8.40
2782.48,8.53
2810.30,8.64
2838.40,8.70
2866.79,8.77
2895.46,8.83
2924.41,8.82
2953.65,8.79
2983.19,8.77
3013.02,8.71
3043.15,8.62
3073.58,8.53
3104.32,8.40
3135.36,8.28
3166.72,8.15
3198.38,8.00
3230.37,7.86
3262.67,7.71
3295.30,7.55
3328.25,7.39
3361.53,7.22
3395.15,7.06
3429.10,6.89
3463.39,6.72
3498.03,6.55
3533.01,6.37
3568.34,6.20
3604.02,6.03
3640.06,5.86
3676.46,5.70
3713.22,5.54
3750.36,5.38
3787.86,5.23
3825.74,5.08
3864.00,4.94
3902.64,4.81
3941.66,4.69
3981.08,4.56
4020.89,4.45
4061.10,4.36
4101.71,4.26
4142.73,4.17
4184.15,4.09
4226.00,4.02
4268.26,3.95
4310.94,3.89
4354.05,3.84
4397.59,3.81
4441.56,3.79
4485.98,3.77
4530.84,3.77
4576.15,3.79
4621.91,3.81
4668.13,3.86
4714.81,3.92
4761.96,3.97
4809.58,4.05
4857.67,4.13
4906.25,4.23
4955.31,4.33
5004.87,4.44
5054.91,4.55
5105.46,4.67
5156.52,4.79
5208.08,4.91
5260.16,5.03
5312.77,5.15
5365.89,5.28
5419.55,5.41
5473.75,5.55
5528.49,5.68
5583.77,5.82
5639.61,5.96
5696.00,6.10
5752.96,6.24
5810.49,6.37
5868.60,6.51
5927.28,6.64
5986.56,6.77
6046.42,6.90
6106.89,7.03
6167.96,7.16
6229.64,7.29
6291.93,7.42
6354.85,7.55
6418.40,7.67
6482.58,7.80
6547.41,7.92
6612.88,8.03
6679.01,8.14
6745.80,8.23
6813.26,8.29
6881.39,8.36
6950.21,8.35
7019.71,8.32
7089.91,8.30
7160.81,8.16
7232.41,8.01
7304.74,7.85
7377.79,7.56
7451.56,7.28
7526.08,6.94
7601.34,6.51
7677.35,6.07
7754.13,5.63
7831.67,5.05
7909.98,4.47
7989.08,3.89
8068.98,3.22
8149.67,2.54
8231.16,1.85
8313.47,1.13
8396.61,0.40
8480.57,-0.33
8565.38,-1.06
8651.03,-1.78
8737.54,-2.51
8824.92,-3.18
8913.17,-3.84
9002.30,-4.51
9092.32,-5.07
9183.25,-5.63
9275.08,-6.16
9367.83,-6.60
9461.51,-7.03
9556.12,-7.39
9651.68,-7.68
9748.20,-7.98
9845.68,-8.14
9944.14,-8.30
10043.58,-8.39
10144.02,-8.42
10245.46,-8.44
10347.91,-8.40
10451.39,-8.29
10555.91,-8.18
10661.46,-7.99
10768.08,-7.74
10875.76,-7.50
10984.52,-7.15
11094.36,-6.78
11205.31,-6.41
11317.36,-5.93
11430.53,-5.46
11544.84,-4.96
11660.29,-4.43
11776.89,-3.90
11894.66,-3.42
12013.60,-2.95
12133.74,-2.47
12255.08,-2.07
12377.63,-1.77
12501.41,-1.47
12626.42,-1.38
12752.68,-1.29
12880.21,-1.39
13009.01,-1.60
13139.10,-1.81
13270.49,-2.19
13403.20,-2.73
13537.23,-3.28
13672.60,-3.92
13809.33,-4.66
13947.42,-5.40
14086.90,-6.04
14227.77,-6.62
14370.04,-7.20
14513.74,-7.72
14658.88,-7.57
14805.47,-7.42
14953.52,-7.27
15103.06,-6.88
15254.09,-6.38
15406.63,-5.88
15560.70,-5.54
15716.30,-5.45
15873.47,-5.36
16032.20,-5.36
16192.52,-5.66
16354.45,-5.97
16517.99,-6.26
16683.17,-6.42
16850.01,-6.58
17018.51,-6.71
17188.69,-6.53
17360.58,-6.36
17534.18,-6.38
17709.53,-7.19
17886.62,-8.01
18065.49,-8.77
18246.14,-9.44
18428.60,-10.10
18612.89,-10.39
18799.02,-10.45
18987.01,-10.51
19176.88,-11.07
19368.65,-11.66
19562.33,-12.33
19757.96,-13.13
19955.54,-13.94
