frequency,raw
20.00,2.32
20.20,2.39
20.40,2.45
20.61,2.51
20.81,2.57
21.02,2.63
21.23,2.69
21.44,2.75
21.66,2.81
21.87,2.86
22.09,2.91
22.31,2.97
22.54,3.02
22.76,3.07
22.99,3.12
23.22,3.17
23.45,3.22
23.69,3.27
23.92,3.32
24.16,3.36
24.40,3.41
24.65,3.45
24.89,3.50
25.14,3.54
25.39,3.59
25.65,3.63
25.91,3.67
26.16,3.71
26.43,3.75
26.69,3.79
26.96,3.83
27.23,3.87
27.50,3.90
27.77,3.94
28.05,3.97
28.33,4.01
28.62,4.04
28.90,4.08
29.19,4.11
29.48,4.14
29.78,4.18
30.08,4.21
30.38,4.24
30.68,4.27
30.99,4.29
31.30,4.32
31.61,4.34
31.93,4.37
32.24,4.40
32.57,4.42
32.89,4.45
33.22,4.47
33.55,4.49
33.89,4.51
34.23,4.53
34.57,4.55
34.92,4.57
35.27,4.59
35.62,4.61
35.97,4.62
36.33,4.64
36.70,4.65
37.06,4.66
37.43,4.68
37.81,4.69
38.19,4.70
38.57,4.71
38.95,4.73
39.34,4.74
39.74,4.76
40.14,4.77
40.54,4.78
40.94,4.79
41.35,4.80
41.76,4.80
42.18,4.81
42.60,4.81
43.03,4.81
43.46,4.81
43.90,4.80
44.33,4.80
44.78,4.80
45.23,4.80
45.68,4.80
46.13,4.79
46.60,4.79
47.06,4.79
47.53,4.79
48.01,4.79
48.49,4.79
48.97,4.78
49.46,4.78
49.96,4.77
50.46,4.77
50.96,4.76
51.47,4.76
51.99,4.75
52.51,4.74
53.03,4.73
53.56,4.72
54.10,4.71
54.64,4.69
55.18,4.68
55.74,4.66
56.29,4.65
56.86,4.63
57.42,4.62
58.00,4.60
58.58,4.58
59.16,4.56
59.76,4.54
60.35,4.52
60.96,4.50
61.57,4.48
62.18,4.46
62.80,4.44
63.43,4.42
64.07,4.40
64.71,4.37
65.35,4.35
66.01,4.33
66.67,4.31
67.33,4.28
68.01,4.26
68.69,4.23
69.37,4.20
70.07,4.17
70.77,4.14
71.48,4.11
72.19,4.08
72.91,4.05
73.64,4.02
74.38,3.99
75.12,3.96
75.87,3.93
76.63,3.90
77.40,3.87
78.17,3.83
78.95,3.80
79.74,3.76
80.54,3.73
81.35,3.69
82.16,3.65
82.98,3.62
83.81,3.58
84.65,3.54
85.50,3.50
86.35,3.47
87.22,3.43
88.09,3.39
88.97,3.35
89.86,3.31
90.76,3.27
91.66,3.23
92.58,3.19
93.51,3.14
94.44,3.10
95.39,3.06
96.34,3.01
97.30,2.97
98.28,2.93
99.26,2.88
100.25,2.84
101.25,2.79
102.27,2.74
103.29,2.70
104.32,2.65
105.37,2.61
106.42,2.57
107.48,2.52
108.56,2.47
109.64,2.43
110.74,2.38
111.85,2.33
112.97,2.28
114.10,2.24
115.24,2.19
116.39,2.14
117.55,2.09
118.73,2.03
119.92,1.98
121.12,1.93
122.33,1.88
123.55,1.83
124.79,1.78
126.03,1.73
127.29,1.68
128.57,1.63
129.85,1.58
131.15,1.52
132.46,1.47
133.79,1.42
135.12,1.37
136.48,1.31
137.84,1.26
139.22,1.21
140.61,1.15
142.02,1.10
143.44,1.05
144.87,0.99
146.32,0.94
147.78,0.89
149.26,0.83
150.75,0.78
152.26,0.72
153.78,0.67
155.32,0.62
156.88,0.56
158.44,0.51
160.03,0.45
161.63,0.40
163.24,0.34
164.88,0.29
166.53,0.24
168.19,0.18
169.87,0.13
171.57,0.08
173.29,0.02
175.02,-0.03
176.77,-0.08
178.54,-0.14
180.32,-0.19
182.13,-0.25
183.95,-0.30
185.79,-0.36
187.65,-0.41
189.52,-0.46
191.42,-0.52
193.33,-0.57
195.27,-0.62
197.22,-0.68
199.19,-0.73
201.18,-0.79
203.19,-0.84
205.23,-0.89
207.28,-0.95
209.35,-1.00
211.44,-1.05
213.56,-1.10
215.69,-1.16
217.85,-1.21
220.03,-1.26
222.23,-1.31
224.45,-1.36
226.70,-1.40
228.96,-1.45
231.25,-1.50
233.57,-1.54
235.90,-1.58
238.26,-1.62
240.64,-1.66
243.05,-1.71
245.48,-1.75
247.93,-1.80
250.41,-1.84
252.92,-1.89
255.45,-1.93
258.00,-1.98
260.58,-2.01
263.19,-2.05
265.82,-2.09
268.48,-2.12
271.16,-2.16
273.87,-2.19
276.61,-2.22
279.38,-2.26
282.17,-2.29
284.99,-2.33
287.84,-2.36
290.72,-2.40
293.63,-2.44
296.57,-2.47
299.53,-2.51
302.53,-2.55
305.55,-2.58
308.61,-2.62
311.69,-2.65
314.81,-2.69
317.96,-2.72
321.14,-2.75
324.35,-2.79
327.59,-2.82
330.87,-2.85
334.18,-2.88
337.52,-2.91
340.90,-2.94
344.30,-2.97
347.75,-2.99
351.23,-3.02
354.74,-3.04
358.28,-3.07
361.87,-3.09
365.49,-3.12
369.14,-3.14
372.83,-3.16
376.56,-3.18
380.33,-3.20
384.13,-3.22
387.97,-3.23
391.85,-3.25
395.77,-3.27
399.73,-3.28
403.72,-3.30
407.76,-3.31
411.84,-3.33
415.96,-3.34
420.12,-3.35
424.32,-3.36
428.56,-3.37
432.85,-3.38
437.18,-3.39
441.55,-3.39
445.96,-3.40
450.42,-3.40
454.93,-3.40
459.48,-3.40
464.07,-3.40
468.71,-3.40
473.40,-3.39
478.13,-3.39
482.91,-3.38
487.74,-3.38
492.62,-3.37
497.55,-3.36
502.52,-3.35
507.55,-3.35
512.62,-3.34
517.75,-3.33
522.93,-3.32
528.16,-3.30
533.44,-3.29
538.77,-3.28
544.16,-3.26
549.60,-3.25
555.10,-3.23
560.65,-3.21
566.25,-3.19
571.92,-3.17
577.64,-3.15
583.41,-3.13
589.25,-3.11
595.14,-3.08
601.09,-3.06
607.10,-3.03
613.17,-3.01
619.30,-2.98
625.50,-2.95
631.75,-2.92
638.07,-2.89
644.45,-2.86
650.89,-2.82
657.40,-2.79
663.98,-2.75
670.62,-2.72
677.32,-2.68
684.10,-2.64
690.94,-2.60
697.85,-2.56
704.83,-2.52
711.87,-2.47
718.99,-2.43
726.18,-2.38
733.44,-2.34
740.78,-2.29
748.19,-2.24
755.67,-2.19
763.23,-2.13
770.86,-2.08
778.57,-2.02
786.35,-1.97
794.22,-1.91
802.16,-1.85
810.18,-1.79
818.28,-1.72
826.46,-1.66
834.73,-1.59
843.08,-1.52
851.51,-1.45
860.02,-1.37
868.62,-1.30
877.31,-1.22
886.08,-1.14
894.94,-1.06
903.89,-0.97
912.93,-0.89
922.06,-0.80
931.28,-0.71
940.59,-0.61
950.00,-0.52
959.50,-0.42
969.09,-0.32
978.78,-0.22
988.57,-0.12
998.46,-0.02
1008.44,0.09
1018.53,0.19
1028.71,0.30
1039.00,0.40
1049.39,0.51
1059.88,0.61
1070.48,0.72
1081.19,0.82
1092.00,0.93
1102.92,1.03
1113.95,1.13
1125.09,1.24
1136.34,1.33
1147.70,1.43
1159.18,1.53
1170.77,1.62
1182.48,1.71
1194.30,1.80
1206.25,1.89
1218.31,1.97
1230.49,2.05
1242.80,2.13
1255.22,2.21
1267.78,2.29
1280.45,2.36
1293.26,2.43
1306.19,2.50
1319.25,2.58
1332.45,2.64
1345.77,2.71
1359.23,2.77
1372.82,2.83
1386.55,2.89
1400.41,2.95
1414.42,3.00
1428.56,3.06
1442.85,3.11
1457.28,3.17
1471.85,3.22
1486.57,3.27
1501.43,3.32
1516.45,3.37
1531.61,3.42
1546.93,3.47
1562.40,3.51
1578.02,3.56
1593.80,3.61
1609.74,3.66
1625.84,3.71
1642.10,3.76
1658.52,3.81
1675.10,3.86
1691.85,3.91
1708.77,3.96
1725.86,4.01
1743.12,4.06
1760.55,4.11
1778.15,4.16
1795.94,4.21
1813.90,4.26
1832.03,4.31
1850.36,4.37
1868.86,4.42
1887.55,4.47
1906.42,4.52
1925.49,4.58
1944.74,4.63
1964.19,4.68
1983.83,4.73
2003.67,4.78
2023.71,4.84
2043.94,4.89
2064.38,4.93
2085.03,4.98
2105.88,5.03
2126.94,5.07
2148.20,5.12
2169.69,5.16
2191.38,5.19
2213.30,5.23
2235.43,5.26
2257.78,5.29
2280.36,5.32
2303.17,5.34
2326.20,5.36
2349.46,5.38
2372.95,5.39
2396.68,5.39
2420.65,5.40
2444.86,5.39
2469.31,5.39
2494.00,5.38
2518.94,5.36
2544.13,5.34
2569.57,5.32
2595.27,5.29
2621.22,5.26
2647.43,5.22
2673.90,5.18
2700.64,5.14
2727.65,5.09
2754.93,5.05
2782.48,5.00
2810.30,4.95
2838.40,4.90
2866.79,4.84
2895.46,4.79
2924.41,4.73
2953.65,4.68
2983.19,4.62
3013.02,4.56
3043.15,4.50
3073.58,4.44
3104.32,4.37
3135.36,4.31
3166.72,4.24
3198.38,4.17
3230.37,4.09
3262.67,4.02
3295.30,3.96
3328.25,3.89
3361.53,3.83
3395.15,3.78
3429.10,3.73
3463.39,3.69
3498.03,3.67
3533.01,3.64
3568.34,3.63
3604.02,3.64
3640.06,3.65
3676.46,3.69
3713.22,3.73
3750.36,3.78
3787.86,3.87
3825.74,3.96
3864.00,4.05
3902.64,4.17
3941.66,4.29
3981.08,4.42
4020.89,4.55
4061.10,4.70
4101.71,4.84
4142.73,4.98
4184.15,5.13
4226.00,5.27
4268.26,5.40
4310.94,5.53
4354.05,5.65
4397.59,5.74
4441.56,5.82
4485.98,5.90
4530.84,5.93
4576.15,5.93
4621.91,5.93
4668.13,5.83
4714.81,5.73
4761.96,5.60
4809.58,5.38
4857.67,5.17
4906.25,4.87
4955.31,4.55
5004.87,4.23
5054.91,3.83
5105.46,3.43
5156.52,3.03
5208.08,2.61
5260.16,2.19
5312.77,1.77
5365.89,1.37
5419.55,0.98
5473.75,0.61
5528.49,0.28
5583.77,-0.05
5639.61,-0.30
5696.00,-0.51
5752.96,-0.72
5810.49,-0.90
5868.60,-0.94
5927.28,-0.98
5986.56,-1.02
6046.42,-0.95
6106.89,-0.84
6167.96,-0.69
6229.64,-0.47
6291.93,-0.24
6354.85,0.13
6418.40,0.52
6482.58,0.90
6547.41,1.37
6612.88,1.86
6679.01,2.35
6745.80,2.79
6813.26,3.21
6881.39,3.64
6950.21,3.95
7019.71,4.21
7089.91,4.47
7160.81,4.59
7232.41,4.69
7304.74,4.79
7377.79,4.80
7451.56,4.80
7526.08,4.80
7601.34,4.78
7677.35,4.75
7754.13,4.73
7831.67,4.71
7909.98,4.68
7989.08,4.66
8068.98,4.59
8149.67,4.52
8231.16,4.45
8313.47,4.29
8396.61,4.10
8480.57,3.92
8565.38,3.64
8651.03,3.34
8737.54,3.03
8824.92,2.67
8913.17,2.30
9002.30,1.93
9092.32,1.57
9183.25,1.21
9275.08,0.87
9367.83,0.58
9461.51,0.30
9556.12,0.10
9651.68,-0.06
9748.20,-0.21
9845.68,-0.22
9944.14,-0.22
10043.58,-0.17
10144.02,-0.03
10245.46,0.11
10347.91,0.26
10451.39,0.42
10555.91,0.59
10661.46,0.60
10768.08,0.50
10875.76,0.40
10984.52,-0.01
11094.36,-0.50
11205.31,-1.00
11317.36,-1.59
11430.53,-2.19
11544.84,-2.66
11660.29,-2.95
11776.89,-3.25
11894.66,-3.20
12013.60,-3.08
12133.74,-2.96
12255.08,-2.78
12377.63,-2.54
12501.41,-2.30
12626.42,-2.19
12752.68,-2.08
12880.21,-2.12
13009.01,-2.25
13139.10,-2.38
13270.49,-2.61
13403.20,-2.91
13537.23,-3.22
13672.60,-3.51
13809.33,-3.78
13947.42,-4.06
14086.90,-4.18
14227.77,-4.21
14370.04,-4.23
14513.74,-4.23
14658.88,-3.88
14805.47,-3.53
14953.52,-3.17
15103.06,-2.71
15254.09,-2.20
15406.63,-1.68
15560.70,-1.29
15716.30,-1.08
15873.47,-0.87
16032.20,-0.75
16192.52,-1.04
16354.45,-1.32
16517.99,-1.65
16683.17,-2.35
16850.01,-3.05
17018.51,-3.76
17188.69,-4.51
17360.58,-5.25
17534.18,-5.93
17709.53,-6.32
17886.62,-6.70
18065.49,-6.94
18246.14,-6.93
18428.60,-6.92
18612.89,-6.82
18799.02,-6.67
18987.01,-6.53
19176.88,-6.55
19368.65,-6.58
19562.33,-6.65
19757.96,-6.81
19955.54,-6.97
