frequency,raw
20.00,1.97
20.20,2.02
20.40,2.06
20.61,2.11
20.81,2.16
21.02,2.21
21.23,2.26
21.44,2.31
21.66,2.35
21.87,2.40
22.09,2.44
22.31,2.49
22.54,2.53
22.76,2.57
22.99,2.62
23.22,2.66
23.45,2.71
23.69,2.75
23.92,2.79
24.16,2.84
24.40,2.88
24.65,2.92
24.89,2.96
25.14,3.00
25.39,3.04
25.65,3.08
25.91,3.11
26.16,3.15
26.43,3.19
26.69,3.22
26.96,3.26
27.23,3.29
27.50,3.32
27.77,3.35
28.05,3.38
28.33,3.41
28.62,3.44
28.90,3.47
29.19,3.50
29.48,3.53
29.78,3.57
30.08,3.60
30.38,3.63
30.68,3.66
30.99,3.69
31.30,3.72
31.61,3.75
31.93,3.77
32.24,3.80
32.57,3.83
32.89,3.85
33.22,3.88
33.55,3.90
33.89,3.92
34.23,3.94
34.57,3.97
34.92,3.99
35.27,4.01
35.62,4.03
35.97,4.04
36.33,4.06
36.70,4.08
37.06,4.09
37.43,4.11
37.81,4.12
38.19,4.14
38.57,4.15
38.95,4.17
39.34,4.18
39.74,4.20
40.14,4.21
40.54,4.23
40.94,4.24
41.35,4.25
41.76,4.27
42.18,4.28
42.60,4.29
43.03,4.31
43.46,4.32
43.90,4.34
44.33,4.35
44.78,4.36
45.23,4.37
45.68,4.37
46.13,4.38
46.60,4.39
47.06,4.39
47.53,4.40
48.01,4.40
48.49,4.41
48.97,4.42
49.46,4.42
49.96,4.43
50.46,4.43
50.96,4.44
51.47,4.45
51.99,4.45
52.51,4.45
53.03,4.46
53.56,4.46
54.10,4.46
54.64,4.46
55.18,4.47
55.74,4.47
56.29,4.47
56.86,4.48
57.42,4.48
58.00,4.48
58.58,4.48
59.16,4.47
59.76,4.47
60.35,4.47
60.96,4.46
61.57,4.46
62.18,4.46
62.80,4.45
63.43,4.45
64.07,4.44
64.71,4.44
65.35,4.44
66.01,4.43
66.67,4.43
67.33,4.42
68.01,4.42
68.69,4.41
69.37,4.40
70.07,4.40
70.77,4.39
71.48,4.38
72.19,4.37
72.91,4.36
73.64,4.35
74.38,4.34
75.12,4.33
75.87,4.33
76.63,4.32
77.40,4.32
78.17,4.31
78.95,4.30
79.74,4.29
80.54,4.28
81.35,4.27
82.16,4.26
82.98,4.25
83.81,4.24
84.65,4.23
85.50,4.22
86.35,4.20
87.22,4.19
88.09,4.18
88.97,4.16
89.86,4.15
90.76,4.14
91.66,4.13
92.58,4.11
93.51,4.10
94.44,4.09
95.39,4.08
96.34,4.06
97.30,4.05
98.28,4.04
99.26,4.02
100.25,4.01
101.25,3.99
102.27,3.98
103.29,3.96
104.32,3.94
105.37,3.93
106.42,3.91
107.48,3.89
108.56,3.88
109.64,3.86
110.74,3.84
111.85,3.83
112.97,3.81
114.10,3.79
115.24,3.77
116.39,3.76
117.55,3.74
118.73,3.72
119.92,3.70
121.12,3.68
122.33,3.66
123.55,3.64
124.79,3.62
126.03,3.60
127.29,3.58
128.57,3.56
129.85,3.54
131.15,3.52
132.46,3.50
133.79,3.48
135.12,3.46
136.48,3.44
137.84,3.42
139.22,3.39
140.61,3.37
142.02,3.35
143.44,3.33
144.87,3.30
146.32,3.28
147.78,3.25
149.26,3.23
150.75,3.20
152.26,3.18
153.78,3.15
155.32,3.13
156.88,3.10
158.44,3.08
160.03,3.05
161.63,3.03
163.24,3.00
164.88,2.98
166.53,2.96
168.19,2.93
169.87,2.91
171.57,2.88
173.29,2.86
175.02,2.83
176.77,2.81
178.54,2.79
180.32,2.76
182.13,2.75
183.95,2.73
185.79,2.71
187.65,2.70
189.52,2.68
191.42,2.66
193.33,2.64
195.27,2.63
197.22,2.60
199.19,2.58
201.18,2.56
203.19,2.53
205.23,2.51
207.28,2.49
209.35,2.46
211.44,2.44
213.56,2.42
215.69,2.40
217.85,2.37
220.03,2.35
222.23,2.33
224.45,2.30
226.70,2.27
228.96,2.24
231.25,2.22
233.57,2.19
235.90,2.15
238.26,2.13
240.64,2.10
243.05,2.07
245.48,2.03
247.93,2.00
250.41,1.97
252.92,1.94
255.45,1.91
258.00,1.88
260.58,1.85
263.19,1.82
265.82,1.79
268.48,1.76
271.16,1.73
273.87,1.70
276.61,1.66
279.38,1.63
282.17,1.60
284.99,1.57
287.84,1.54
290.72,1.51
293.63,1.48
296.57,1.45
299.53,1.42
302.53,1.39
305.55,1.36
308.61,1.33
311.69,1.30
314.81,1.27
317.96,1.23
321.14,1.20
324.35,1.17
327.59,1.14
330.87,1.11
334.18,1.08
337.52,1.04
340.90,1.01
344.30,0.98
347.75,0.95
351.23,0.92
354.74,0.89
358.28,0.86
361.87,0.83
365.49,0.79
369.14,0.76
372.83,0.73
376.56,0.70
380.33,0.67
384.13,0.64
387.97,0.61
391.85,0.57
395.77,0.54
399.73,0.51
403.72,0.48
407.76,0.45
411.84,0.42
415.96,0.39
420.12,0.36
424.32,0.33
428.56,0.30
432.85,0.27
437.18,0.24
441.55,0.21
445.96,0.18
450.42,0.15
454.93,0.12
459.48,0.09
464.07,0.06
468.71,0.04
473.40,0.01
478.13,-0.02
482.91,-0.05
487.74,-0.08
492.62,-0.10
497.55,-0.13
502.52,-0.16
507.55,-0.18
512.62,-0.21
517.75,-0.24
522.93,-0.26
528.16,-0.29
533.44,-0.31
538.77,-0.34
544.16,-0.36
549.60,-0.39
555.10,-0.41
560.65,-0.43
566.25,-0.45
571.92,-0.48
577.64,-0.50
583.41,-0.52
589.25,-0.54
595.14,-0.56
601.09,-0.58
607.10,-0.60
613.17,-0.62
619.30,-0.64
625.50,-0.65
631.75,-0.67
638.07,-0.69
644.45,-0.70
650.89,-0.72
657.40,-0.73
663.98,-0.74
670.62,-0.76
677.32,-0.77
684.10,-0.78
690.94,-0.79
697.85,-0.79
704.83,-0.80
711.87,-0.81
718.99,-0.81
726.18,-0.82
733.44,-0.82
740.78,-0.82
748.19,-0.82
755.67,-0.82
763.23,-0.81
770.86,-0.81
778.57,-0.80
786.35,-0.80
794.22,-0.79
802.16,-0.78
810.18,-0.76
818.28,-0.75
826.46,-0.73
834.73,-0.71
843.08,-0.69
851.51,-0.67
860.02,-0.64
868.62,-0.62
877.31,-0.59
886.08,-0.56
894.94,-0.53
903.89,-0.49
912.93,-0.45
922.06,-0.41
931.28,-0.37
940.59,-0.33
950.00,-0.28
959.50,-0.23
969.09,-0.18
978.78,-0.13
988.57,-0.07
998.46,-0.01
1008.44,0.05
1018.53,0.12
1028.71,0.18
1039.00,0.25
1049.39,0.32
1059.88,0.39
1070.48,0.46
1081.19,0.53
1092.00,0.60
1102.92,0.67
1113.95,0.74
1125.09,0.82
1136.34,0.89
1147.70,0.96
1159.18,1.03
1170.77,1.11
1182.48,1.18
1194.30,1.25
1206.25,1.32
1218.31,1.39
1230.49,1.46
1242.80,1.53
1255.22,1.60
1267.78,1.67
1280.45,1.74
1293.26,1.80
1306.19,1.87
1319.25,1.93
1332.45,2.00
1345.77,2.06
1359.23,2.13
1372.82,2.19
1386.55,2.25
1400.41,2.32
1414.42,2.38
1428.56,2.44
1442.85,2.51
1457.28,2.57
1471.85,2.63
1486.57,2.69
1501.43,2.76
1516.45,2.82
1531.61,2.89
1546.93,2.95
1562.40,3.01
1578.02,3.08
1593.80,3.14
1609.74,3.21
1625.84,3.27
1642.10,3.34
1658.52,3.41
1675.10,3.47
1691.85,3.54
1708.77,3.61
1725.86,3.68
1743.12,3.75
1760.55,3.82
1778.15,3.89
1795.94,3.96
1813.90,4.03
1832.03,4.10
1850.36,4.17
1868.86,4.24
1887.55,4.31
1906.42,4.38
1925.49,4.45
1944.74,4.53
1964.19,4.60
1983.83,4.67
2003.67,4.74
2023.71,4.81
2043.94,4.88
2064.38,4.95
2085.03,5.01
2105.88,5.08
2126.94,5.15
2148.20,5.21
2169.69,5.27
2191.38,5.34
2213.30,5.40
2235.43,5.45
2257.78,5.51
2280.36,5.56
2303.17,5.62
2326.20,5.66
2349.46,5.71
2372.95,5.75
2396.68,5.79
2420.65,5.83
2444.86,5.86
2469.31,5.89
2494.00,5.92
2518.94,5.95
2544.13,5.97
2569.57,5.99
2595.27,6.00
2621.22,6.01
2647.43,6.02
2673.90,6.02
2700.64,6.02
2727.65,6.02
2754.93,6.02
2782.48,6.01
2810.30,6.00
2838.40,5.98
2866.79,5.96
2895.46,5.94
2924.41,5.92
2953.65,5.90
2983.19,5.88
3013.02,5.87
3043.15,5.85
3073.58,5.83
3104.32,5.81
3135.36,5.80
3166.72,5.78
3198.38,5.76
3230.37,5.74
3262.67,5.72
3295.30,5.70
3328.25,5.68
3361.53,5.66
3395.15,5.65
3429.10,5.64
3463.39,5.64
3498.03,5.64
3533.01,5.65
3568.34,5.66
3604.02,5.68
3640.06,5.70
3676.46,5.74
3713.22,5.79
3750.36,5.83
3787.86,5.89
3825.74,5.94
3864.00,6.00
3902.64,6.05
3941.66,6.10
3981.08,6.16
4020.89,6.21
4061.10,6.26
4101.71,6.31
4142.73,6.37
4184.15,6.43
4226.00,6.49
4268.26,6.55
4310.94,6.61
4354.05,6.67
4397.59,6.73
4441.56,6.79
4485.98,6.84
4530.84,6.88
4576.15,6.91
4621.91,6.95
4668.13,6.94
4714.81,6.94
4761.96,6.93
4809.58,6.89
4857.67,6.85
4906.25,6.78
4955.31,6.71
5004.87,6.63
5054.91,6.51
5105.46,6.40
5156.52,6.27
5208.08,6.10
5260.16,5.93
5312.77,5.75
5365.89,5.54
5419.55,5.33
5473.75,5.11
5528.49,4.88
5583.77,4.64
5639.61,4.42
5696.00,4.19
5752.96,3.96
5810.49,3.74
5868.60,3.53
5927.28,3.32
5986.56,3.12
6046.42,2.93
6106.89,2.75
6167.96,2.58
6229.64,2.44
6291.93,2.29
6354.85,2.19
6418.40,2.09
6482.58,1.99
6547.41,1.93
6612.88,1.89
6679.01,1.85
6745.80,1.84
6813.26,1.85
6881.39,1.87
6950.21,1.93
7019.71,2.01
7089.91,2.09
7160.81,2.25
7232.41,2.42
7304.74,2.60
7377.79,2.87
7451.56,3.14
7526.08,3.43
7601.34,3.77
7677.35,4.11
7754.13,4.44
7831.67,4.72
7909.98,5.01
7989.08,5.29
8068.98,5.33
8149.67,5.33
8231.16,5.33
8313.47,5.01
8396.61,4.60
8480.57,4.19
8565.38,3.54
8651.03,2.82
8737.54,2.10
8824.92,1.30
8913.17,0.48
9002.30,-0.34
9092.32,-1.10
9183.25,-1.86
9275.08,-2.59
9367.83,-3.25
9461.51,-3.90
9556.12,-4.48
9651.68,-5.02
9748.20,-5.56
9845.68,-5.99
9944.14,-6.42
10043.58,-6.81
10144.02,-7.13
10245.46,-7.46
10347.91,-7.74
10451.39,-7.95
10555.91,-8.17
10661.46,-8.32
10768.08,-8.43
10875.76,-8.54
10984.52,-8.57
11094.36,-8.57
11205.31,-8.56
11317.36,-8.44
11430.53,-8.32
11544.84,-8.15
11660.29,-7.88
11776.89,-7.61
11894.66,-7.16
12013.60,-6.67
12133.74,-6.17
12255.08,-5.52
12377.63,-4.68
12501.41,-3.83
12626.42,-2.63
12752.68,-1.43
12880.21,-0.12
13009.01,1.26
13139.10,2.63
13270.49,3.65
13403.20,4.37
13537.23,5.08
13672.60,5.12
13809.33,4.58
13947.42,4.03
14086.90,3.07
14227.77,1.86
14370.04,0.66
14513.74,-0.51
14658.88,-1.29
14805.47,-2.08
14953.52,-2.86
15103.06,-3.22
15254.09,-3.37
15406.63,-3.53
15560.70,-3.62
15716.30,-3.59
15873.47,-3.57
16032.20,-3.62
16192.52,-3.98
16354.45,-4.34
16517.99,-4.75
16683.17,-5.54
16850.01,-6.34
17018.51,-7.14
17188.69,-7.99
17360.58,-8.84
17534.18,-9.64
17709.53,-10.25
17886.62,-10.86
18065.49,-11.37
18246.14,-11.71
18428.60,-12.05
18612.89,-12.31
18799.02,-12.53
18987.01,-12.75
19176.88,-13.10
19368.65,-13.45
19562.33,-13.82
19757.96,-14.23
19955.54,-14.64
