frequency,raw
20.00,6.47
20.20,6.51
20.40,6.55
20.61,6.60
20.81,6.64
21.02,6.68
21.23,6.72
21.44,6.76
21.66,6.80
21.87,6.84
22.09,6.88
22.31,6.92
22.54,6.96
22.76,7.00
22.99,7.04
23.22,7.07
23.45,7.11
23.69,7.14
23.92,7.17
24.16,7.21
24.40,7.24
24.65,7.27
24.89,7.30
25.14,7.33
25.39,7.36
25.65,7.38
25.91,7.41
26.16,7.44
26.43,7.46
26.69,7.49
26.96,7.51
27.23,7.53
27.50,7.55
27.77,7.57
28.05,7.60
28.33,7.61
28.62,7.63
28.90,7.65
29.19,7.67
29.48,7.68
29.78,7.70
30.08,7.72
30.38,7.73
30.68,7.74
30.99,7.76
31.30,7.77
31.61,7.78
31.93,7.79
32.24,7.80
32.57,7.81
32.89,7.82
33.22,7.83
33.55,7.84
33.89,7.84
34.23,7.85
34.57,7.85
34.92,7.85
35.27,7.86
35.62,7.86
35.97,7.86
36.33,7.86
36.70,7.86
37.06,7.86
37.43,7.86
37.81,7.86
38.19,7.86
38.57,7.85
38.95,7.85
39.34,7.85
39.74,7.84
40.14,7.83
40.54,7.83
40.94,7.82
41.35,7.81
41.76,7.80
42.18,7.79
42.60,7.78
43.03,7.77
43.46,7.76
43.90,7.75
44.33,7.73
44.78,7.72
45.23,7.71
45.68,7.69
46.13,7.68
46.60,7.66
47.06,7.64
47.53,7.62
48.01,7.60
48.49,7.58
48.97,7.56
49.46,7.54
49.96,7.52
50.46,7.50
50.96,7.47
51.47,7.45
51.99,7.42
52.51,7.40
53.03,7.37
53.56,7.34
54.10,7.32
54.64,7.29
55.18,7.26
55.74,7.23
56.29,7.20
56.86,7.17
57.42,7.14
58.00,7.10
58.58,7.07
59.16,7.04
59.76,7.00
60.35,6.97
60.96,6.93
61.57,6.90
62.18,6.86
62.80,6.82
63.43,6.78
64.07,6.74
64.71,6.70
65.35,6.66
66.01,6.62
66.67,6.58
67.33,6.54
68.01,6.50
68.69,6.45
69.37,6.41
70.07,6.37
70.77,6.32
71.48,6.28
72.19,6.23
72.91,6.18
73.64,6.14
74.38,6.09
75.12,6.04
75.87,6.00
76.63,5.95
77.40,5.90
78.17,5.85
78.95,5.80
79.74,5.75
80.54,5.70
81.35,5.65
82.16,5.60
82.98,5.55
83.81,5.50
84.65,5.45
85.50,5.40
86.35,5.35
87.22,5.30
88.09,5.25
88.97,5.19
89.86,5.14
90.76,5.09
91.66,5.04
92.58,4.99
93.51,4.94
94.44,4.89
95.39,4.84
96.34,4.78
97.30,4.73
98.28,4.68
99.26,4.63
100.25,4.58
101.25,4.53
102.27,4.48
103.29,4.43
104.32,4.38
105.37,4.33
106.42,4.28
107.48,4.23
108.56,4.18
109.64,4.13
110.74,4.08
111.85,4.03
112.97,3.98
114.10,3.93
115.24,3.88
116.39,3.83
117.55,3.78
118.73,3.73
119.92,3.68
121.12,3.63
122.33,3.58
123.55,3.54
124.79,3.49
126.03,3.44
127.29,3.39
128.57,3.34
129.85,3.29
131.15,3.24
132.46,3.19
133.79,3.14
135.12,3.09
136.48,3.04
137.84,2.99
139.22,2.94
140.61,2.89
142.02,2.84
143.44,2.78
144.87,2.73
146.32,2.68
147.78,2.63
149.26,2.58
150.75,2.53
152.26,2.48
153.78,2.42
155.32,2.37
156.88,2.32
158.44,2.27
160.03,2.22
161.63,2.16
163.24,2.11
164.88,2.06
166.53,2.01
168.19,1.95
169.87,1.90
171.57,1.84
173.29,1.79
175.02,1.74
176.77,1.68
178.54,1.63
180.32,1.57
182.13,1.52
183.95,1.46
185.79,1.41
187.65,1.36
189.52,1.30
191.42,1.26
193.33,1.21
195.27,1.17
197.22,1.14
199.19,1.10
201.18,1.07
203.19,1.04
205.23,1.00
207.28,0.97
209.35,0.93
211.44,0.89
213.56,0.85
215.69,0.81
217.85,0.77
220.03,0.73
222.23,0.68
224.45,0.64
226.70,0.61
228.96,0.57
231.25,0.54
233.57,0.52
235.90,0.49
238.26,0.47
240.64,0.44
243.05,0.42
245.48,0.39
247.93,0.35
250.41,0.32
252.92,0.29
255.45,0.25
258.00,0.21
260.58,0.18
263.19,0.14
265.82,0.10
268.48,0.07
271.16,0.03
273.87,-0.00
276.61,-0.04
279.38,-0.07
282.17,-0.10
284.99,-0.13
287.84,-0.16
290.72,-0.20
293.63,-0.23
296.57,-0.26
299.53,-0.29
302.53,-0.31
305.55,-0.34
308.61,-0.37
311.69,-0.40
314.81,-0.42
317.96,-0.45
321.14,-0.48
324.35,-0.50
327.59,-0.53
330.87,-0.55
334.18,-0.57
337.52,-0.60
340.90,-0.62
344.30,-0.64
347.75,-0.66
351.23,-0.68
354.74,-0.71
358.28,-0.73
361.87,-0.75
365.49,-0.77
369.14,-0.79
372.83,-0.81
376.56,-0.82
380.33,-0.84
384.13,-0.86
387.97,-0.88
391.85,-0.90
395.77,-0.92
399.73,-0.93
403.72,-0.95
407.76,-0.97
411.84,-0.98
415.96,-1.00
420.12,-1.02
424.32,-1.03
428.56,-1.05
432.85,-1.06
437.18,-1.08
441.55,-1.09
445.96,-1.10
450.42,-1.12
454.93,-1.13
459.48,-1.14
464.07,-1.16
468.71,-1.17
473.40,-1.18
478.13,-1.19
482.91,-1.20
487.74,-1.22
492.62,-1.23
497.55,-1.24
502.52,-1.25
507.55,-1.26
512.62,-1.27
517.75,-1.28
522.93,-1.29
528.16,-1.30
533.44,-1.31
538.77,-1.32
544.16,-1.33
549.60,-1.34
555.10,-1.34
560.65,-1.35
566.25,-1.36
571.92,-1.36
577.64,-1.37
583.41,-1.38
589.25,-1.38
595.14,-1.39
601.09,-1.39
607.10,-1.39
613.17,-1.40
619.30,-1.40
625.50,-1.40
631.75,-1.40
638.07,-1.40
644.45,-1.40
650.89,-1.40
657.40,-1.40
663.98,-1.39
670.62,-1.39
677.32,-1.39
684.10,-1.38
690.94,-1.37
697.85,-1.37
704.83,-1.36
711.87,-1.35
718.99,-1.34
726.18,-1.33
733.44,-1.31
740.78,-1.30
748.19,-1.29
755.67,-1.27
763.23,-1.25
770.86,-1.23
778.57,-1.21
786.35,-1.19
794.22,-1.16
802.16,-1.14
810.18,-1.11
818.28,-1.08
826.46,-1.05
834.73,-1.01
843.08,-0.97
851.51,-0.94
860.02,-0.89
868.62,-0.85
877.31,-0.81
886.08,-0.76
894.94,-0.71
903.89,-0.66
912.93,-0.60
922.06,-0.55
931.28,-0.49
940.59,-0.42
950.00,-0.36
959.50,-0.30
969.09,-0.23
978.78,-0.16
988.57,-0.08
998.46,-0.01
1008.44,0.07
1018.53,0.14
1028.71,0.22
1039.00,0.30
1049.39,0.38
1059.88,0.47
1070.48,0.55
1081.19,0.64
1092.00,0.72
1102.92,0.81
1113.95,0.90
1125.09,0.99
1136.34,1.07
1147.70,1.16
1159.18,1.25
1170.77,1.34
1182.48,1.43
1194.30,1.52
1206.25,1.62
1218.31,1.71
1230.49,1.80
1242.80,1.89
1255.22,1.98
1267.78,2.07
1280.45,2.17
1293.26,2.26
1306.19,2.35
1319.25,2.45
1332.45,2.54
1345.77,2.64
1359.23,2.73
1372.82,2.82
1386.55,2.92
1400.41,3.01
1414.42,3.10
1428.56,3.20
1442.85,3.29
1457.28,3.38
1471.85,3.48
1486.57,3.57
1501.43,3.66
1516.45,3.75
1531.61,3.84
1546.93,3.94
1562.40,4.03
1578.02,4.12
1593.80,4.21
1609.74,4.31
1625.84,4.40
1642.10,4.49
1658.52,4.59
1675.10,4.69
1691.85,4.78
1708.77,4.88
1725.86,4.98
1743.12,5.08
1760.55,5.18
1778.15,5.28
1795.94,5.38
1813.90,5.49
1832.03,5.59
1850.36,5.70
1868.86,5.81
1887.55,5.92
1906.42,6.03
1925.49,6.14
1944.74,6.25
1964.19,6.37
1983.83,6.48
2003.67,6.59
2023.71,6.71
2043.94,6.82
2064.38,6.94
2085.03,7.05
2105.88,7.17
2126.94,7.28
2148.20,7.39
2169.69,7.51
2191.38,7.62
2213.30,7.72
2235.43,7.83
2257.78,7.93
2280.36,8.04
2303.17,8.14
2326.20,8.23
2349.46,8.32
2372.95,8.40
2396.68,8.48
2420.65,8.56
2444.86,8.63
2469.31,8.69
2494.00,8.76
2518.94,8.81
2544.13,8.85
2569.57,8.89
2595.27,8.92
2621.22,8.94
2647.43,8.97
2673.90,8.97
2700.64,8.97
2727.65,8.97
2754.93,8.96
2782.48,8.94
2810.30,8.92
2838.40,8.88
2866.79,8.84
2895.46,8.80
2924.41,8.75
2953.65,8.70
2983.19,8.64
3013.02,8.58
3043.15,8.51
3073.58,8.45
3104.32,8.37
3135.36,8.30
3166.72,8.22
3198.38,8.14
3230.37,8.07
3262.67,7.99
3295.30,7.91
3328.25,7.83
3361.53,7.75
3395.15,7.67
3429.10,7.60
3463.39,7.52
3498.03,7.45
3533.01,7.37
3568.34,7.30
3604.02,7.23
3640.06,7.17
3676.46,7.10
3713.22,7.04
3750.36,6.98
3787.86,6.92
3825.74,6.87
3864.00,6.81
3902.64,6.76
3941.66,6.71
3981.08,6.67
4020.89,6.62
4061.10,6.57
4101.71,6.53
4142.73,6.48
4184.15,6.43
4226.00,6.39
4268.26,6.34
4310.94,6.29
4354.05,6.24
4397.59,6.18
4441.56,6.11
4485.98,6.05
4530.84,5.98
4576.15,5.90
4621.91,5.82
4668.13,5.71
4714.81,5.61
4761.96,5.50
4809.58,5.38
4857.67,5.25
4906.25,5.10
4955.31,4.95
5004.87,4.79
5054.91,4.62
5105.46,4.44
5156.52,4.25
5208.08,4.05
5260.16,3.85
5312.77,3.64
5365.89,3.42
5419.55,3.20
5473.75,2.98
5528.49,2.74
5583.77,2.51
5639.61,2.28
5696.00,2.04
5752.96,1.81
5810.49,1.57
5868.60,1.34
5927.28,1.12
5986.56,0.89
6046.42,0.68
6106.89,0.47
6167.96,0.26
6229.64,0.08
6291.93,-0.11
6354.85,-0.26
6418.40,-0.41
6482.58,-0.56
6547.41,-0.67
6612.88,-0.77
6679.01,-0.86
6745.80,-0.91
6813.26,-0.93
6881.39,-0.95
6950.21,-0.90
7019.71,-0.83
7089.91,-0.75
7160.81,-0.58
7232.41,-0.38
7304.74,-0.18
7377.79,0.14
7451.56,0.46
7526.08,0.80
7601.34,1.20
7677.35,1.60
7754.13,1.99
7831.67,2.25
7909.98,2.51
7989.08,2.77
8068.98,2.66
8149.67,2.49
8231.16,2.32
8313.47,1.79
8396.61,1.14
8480.57,0.50
8565.38,-0.35
8651.03,-1.26
8737.54,-2.17
8824.92,-3.09
8913.17,-4.01
9002.30,-4.94
9092.32,-5.73
9183.25,-6.51
9275.08,-7.22
9367.83,-7.72
9461.51,-8.22
9556.12,-8.42
9651.68,-8.42
9748.20,-8.42
9845.68,-8.07
9944.14,-7.73
10043.58,-7.41
10144.02,-7.12
10245.46,-6.84
10347.91,-6.68
10451.39,-6.67
10555.91,-6.66
10661.46,-6.73
10768.08,-6.85
10875.76,-6.97
10984.52,-7.07
11094.36,-7.16
11205.31,-7.25
11317.36,-7.25
11430.53,-7.24
11544.84,-7.19
11660.29,-7.06
11776.89,-6.94
11894.66,-6.69
12013.60,-6.41
12133.74,-6.12
12255.08,-5.77
12377.63,-5.32
12501.41,-4.87
12626.42,-4.29
12752.68,-3.72
12880.21,-3.10
13009.01,-2.47
13139.10,-1.84
13270.49,-1.27
13403.20,-0.75
13537.23,-0.24
13672.60,0.13
13809.33,0.39
13947.42,0.64
14086.90,0.75
14227.77,0.77
14370.04,0.78
14513.74,0.80
14658.88,0.78
14805.47,0.76
14953.52,0.74
15103.06,0.77
15254.09,0.83
15406.63,0.89
15560.70,0.86
15716.30,0.69
15873.47,0.52
16032.20,0.23
16192.52,-0.54
16354.45,-1.31
16517.99,-2.13
16683.17,-3.38
16850.01,-4.63
17018.51,-5.89
17188.69,-7.24
17360.58,-8.59
17534.18,-9.91
17709.53,-11.09
17886.62,-12.28
18065.49,-13.38
18246.14,-14.33
18428.60,-15.28
18612.89,-16.10
18799.02,-16.85
18987.01,-17.59
19176.88,-18.24
19368.65,-18.89
19562.33,-19.48
19757.96,-19.94
19955.54,-20.40
