frequency,raw
20.00,1.34
20.20,1.38
20.40,1.42
20.61,1.46
20.81,1.51
21.02,1.55
21.23,1.59
21.44,1.61
21.66,1.63
21.87,1.66
22.09,1.71
22.31,1.75
22.54,1.80
22.76,1.85
22.99,1.91
23.22,1.96
23.45,2.01
23.69,2.05
23.92,2.10
24.16,2.14
24.40,2.19
24.65,2.23
24.89,2.28
25.14,2.32
25.39,2.36
25.65,2.40
25.91,2.44
26.16,2.47
26.43,2.51
26.69,2.54
26.96,2.58
27.23,2.62
27.50,2.65
27.77,2.68
28.05,2.71
28.33,2.74
28.62,2.78
28.90,2.81
29.19,2.84
29.48,2.88
29.78,2.92
30.08,2.95
30.38,2.97
30.68,2.99
30.99,3.02
31.30,3.04
31.61,3.07
31.93,3.09
32.24,3.12
32.57,3.14
32.89,3.17
33.22,3.20
33.55,3.23
33.89,3.27
34.23,3.31
34.57,3.34
34.92,3.37
35.27,3.40
35.62,3.41
35.97,3.42
36.33,3.42
36.70,3.43
37.06,3.45
37.43,3.47
37.81,3.49
38.19,3.51
38.57,3.53
38.95,3.54
39.34,3.55
39.74,3.55
40.14,3.56
40.54,3.57
40.94,3.58
41.35,3.60
41.76,3.62
42.18,3.64
42.60,3.66
43.03,3.67
43.46,3.69
43.90,3.70
44.33,3.70
44.78,3.71
45.23,3.71
45.68,3.72
46.13,3.72
46.60,3.73
47.06,3.75
47.53,3.76
48.01,3.77
48.49,3.78
48.97,3.79
49.46,3.78
49.96,3.78
50.46,3.78
50.96,3.77
51.47,3.77
51.99,3.76
52.51,3.76
53.03,3.75
53.56,3.75
54.10,3.75
54.64,3.75
55.18,3.75
55.74,3.74
56.29,3.74
56.86,3.74
57.42,3.74
58.00,3.73
58.58,3.73
59.16,3.72
59.76,3.71
60.35,3.71
60.96,3.70
61.57,3.70
62.18,3.69
62.80,3.68
63.43,3.67
64.07,3.66
64.71,3.64
65.35,3.63
66.01,3.62
66.67,3.60
67.33,3.59
68.01,3.58
68.69,3.57
69.37,3.55
70.07,3.54
70.77,3.53
71.48,3.51
72.19,3.49
72.91,3.48
73.64,3.46
74.38,3.44
75.12,3.43
75.87,3.41
76.63,3.40
77.40,3.39
78.17,3.37
78.95,3.36
79.74,3.35
80.54,3.33
81.35,3.31
82.16,3.30
82.98,3.28
83.81,3.26
84.65,3.25
85.50,3.23
86.35,3.21
87.22,3.20
88.09,3.18
88.97,3.15
89.86,3.13
90.76,3.11
91.66,3.08
92.58,3.06
93.51,3.04
94.44,3.01
95.39,2.99
96.34,2.97
97.30,2.94
98.28,2.92
99.26,2.89
100.25,2.86
101.25,2.84
102.27,2.81
103.29,2.78
104.32,2.75
105.37,2.72
106.42,2.69
107.48,2.66
108.56,2.63
109.64,2.60
110.74,2.57
111.85,2.54
112.97,2.51
114.10,2.49
115.24,2.46
116.39,2.44
117.55,2.41
118.73,2.38
119.92,2.35
121.12,2.33
122.33,2.30
123.55,2.27
124.79,2.24
126.03,2.21
127.29,2.18
128.57,2.15
129.85,2.12
131.15,2.08
132.46,2.05
133.79,2.01
135.12,1.98
136.48,1.95
137.84,1.91
139.22,1.88
140.61,1.85
142.02,1.82
143.44,1.79
144.87,1.76
146.32,1.72
147.78,1.69
149.26,1.66
150.75,1.63
152.26,1.60
153.78,1.57
155.32,1.54
156.88,1.50
158.44,1.46
160.03,1.43
161.63,1.39
163.24,1.35
164.88,1.31
166.53,1.27
168.19,1.23
169.87,1.19
171.57,1.15
173.29,1.11
175.02,1.07
176.77,1.03
178.54,1.00
180.32,0.96
182.13,0.92
183.95,0.88
185.79,0.84
187.65,0.80
189.52,0.76
191.42,0.72
193.33,0.68
195.27,0.64
197.22,0.59
199.19,0.55
201.18,0.51
203.19,0.47
205.23,0.43
207.28,0.39
209.35,0.36
211.44,0.32
213.56,0.28
215.69,0.25
217.85,0.21
220.03,0.17
222.23,0.13
224.45,0.09
226.70,0.05
228.96,0.01
231.25,-0.03
233.57,-0.06
235.90,-0.10
238.26,-0.14
240.64,-0.19
243.05,-0.23
245.48,-0.27
247.93,-0.31
250.41,-0.36
252.92,-0.40
255.45,-0.44
258.00,-0.48
260.58,-0.52
263.19,-0.56
265.82,-0.60
268.48,-0.64
271.16,-0.68
273.87,-0.72
276.61,-0.77
279.38,-0.81
282.17,-0.85
284.99,-0.89
287.84,-0.93
290.72,-0.97
293.63,-1.02
296.57,-1.06
299.53,-1.10
302.53,-1.14
305.55,-1.19
308.61,-1.23
311.69,-1.27
314.81,-1.32
317.96,-1.36
321.14,-1.40
324.35,-1.44
327.59,-1.48
330.87,-1.52
334.18,-1.56
337.52,-1.61
340.90,-1.65
344.30,-1.70
347.75,-1.74
351.23,-1.78
354.74,-1.83
358.28,-1.87
361.87,-1.91
365.49,-1.96
369.14,-2.00
372.83,-2.04
376.56,-2.08
380.33,-2.13
384.13,-2.17
387.97,-2.21
391.85,-2.25
395.77,-2.29
399.73,-2.33
403.72,-2.37
407.76,-2.41
411.84,-2.44
415.96,-2.48
420.12,-2.53
424.32,-2.57
428.56,-2.60
432.85,-2.64
437.18,-2.68
441.55,-2.71
445.96,-2.74
450.42,-2.77
454.93,-2.80
459.48,-2.83
464.07,-2.86
468.71,-2.88
473.40,-2.91
478.13,-2.94
482.91,-2.97
487.74,-3.00
492.62,-3.04
497.55,-3.08
502.52,-3.12
507.55,-3.16
512.62,-3.20
517.75,-3.23
522.93,-3.27
528.16,-3.30
533.44,-3.33
538.77,-3.35
544.16,-3.38
549.60,-3.40
555.10,-3.42
560.65,-3.44
566.25,-3.46
571.92,-3.48
577.64,-3.49
583.41,-3.51
589.25,-3.52
595.14,-3.53
601.09,-3.54
607.10,-3.54
613.17,-3.55
619.30,-3.55
625.50,-3.55
631.75,-3.55
638.07,-3.55
644.45,-3.54
650.89,-3.54
657.40,-3.52
663.98,-3.51
670.62,-3.50
677.32,-3.47
684.10,-3.45
690.94,-3.42
697.85,-3.39
704.83,-3.35
711.87,-3.32
718.99,-3.27
726.18,-3.23
733.44,-3.18
740.78,-3.13
748.19,-3.08
755.67,-3.02
763.23,-2.95
770.86,-2.89
778.57,-2.82
786.35,-2.74
794.22,-2.65
802.16,-2.57
810.18,-2.48
818.28,-2.39
826.46,-2.30
834.73,-2.20
843.08,-2.10
851.51,-2.00
860.02,-1.90
868.62,-1.79
877.31,-1.68
886.08,-1.56
894.94,-1.45
903.89,-1.33
912.93,-1.21
922.06,-1.08
931.28,-0.96
940.59,-0.83
950.00,-0.70
959.50,-0.57
969.09,-0.43
978.78,-0.30
988.57,-0.16
998.46,-0.02
1008.44,0.11
1018.53,0.25
1028.71,0.38
1039.00,0.52
1049.39,0.66
1059.88,0.79
1070.48,0.93
1081.19,1.07
1092.00,1.21
1102.92,1.34
1113.95,1.47
1125.09,1.60
1136.34,1.73
1147.70,1.86
1159.18,1.99
1170.77,2.11
1182.48,2.24
1194.30,2.35
1206.25,2.47
1218.31,2.59
1230.49,2.70
1242.80,2.81
1255.22,2.91
1267.78,3.01
1280.45,3.11
1293.26,3.20
1306.19,3.29
1319.25,3.39
1332.45,3.47
1345.77,3.55
1359.23,3.64
1372.82,3.72
1386.55,3.79
1400.41,3.87
1414.42,3.94
1428.56,4.01
1442.85,4.09
1457.28,4.15
1471.85,4.21
1486.57,4.28
1501.43,4.34
1516.45,4.39
1531.61,4.44
1546.93,4.49
1562.40,4.54
1578.02,4.59
1593.80,4.64
1609.74,4.69
1625.84,4.75
1642.10,4.80
1658.52,4.85
1675.10,4.90
1691.85,4.95
1708.77,5.01
1725.86,5.06
1743.12,5.11
1760.55,5.17
1778.15,5.23
1795.94,5.28
1813.90,5.34
1832.03,5.40
1850.36,5.46
1868.86,5.52
1887.55,5.58
1906.42,5.64
1925.49,5.71
1944.74,5.77
1964.19,5.84
1983.83,5.90
2003.67,5.96
2023.71,6.03
2043.94,6.09
2064.38,6.15
2085.03,6.21
2105.88,6.27
2126.94,6.34
2148.20,6.40
2169.69,6.46
2191.38,6.52
2213.30,6.58
2235.43,6.64
2257.78,6.68
2280.36,6.73
2303.17,6.78
2326.20,6.81
2349.46,6.84
2372.95,6.86
2396.68,6.88
2420.65,6.90
2444.86,6.90
2469.31,6.90
2494.00,6.89
2518.94,6.87
2544.13,6.84
2569.57,6.82
2595.27,6.78
2621.22,6.74
2647.43,6.70
2673.90,6.66
2700.64,6.62
2727.65,6.58
2754.93,6.55
2782.48,6.52
2810.30,6.49
2838.40,6.45
2866.79,6.41
2895.46,6.37
2924.41,6.31
2953.65,6.25
2983.19,6.18
3013.02,6.10
3043.15,6.01
3073.58,5.91
3104.32,5.80
3135.36,5.69
3166.72,5.57
3198.38,5.44
3230.37,5.31
3262.67,5.19
3295.30,5.05
3328.25,4.92
3361.53,4.79
3395.15,4.67
3429.10,4.54
3463.39,4.43
3498.03,4.32
3533.01,4.21
3568.34,4.10
3604.02,4.00
3640.06,3.90
3676.46,3.81
3713.22,3.72
3750.36,3.63
3787.86,3.54
3825.74,3.46
3864.00,3.38
3902.64,3.31
3941.66,3.24
3981.08,3.17
4020.89,3.10
4061.10,3.05
4101.71,2.99
4142.73,2.95
4184.15,2.91
4226.00,2.87
4268.26,2.84
4310.94,2.83
4354.05,2.81
4397.59,2.81
4441.56,2.81
4485.98,2.82
4530.84,2.84
4576.15,2.86
4621.91,2.89
4668.13,2.94
4714.81,2.98
4761.96,3.03
4809.58,3.09
4857.67,3.15
4906.25,3.22
4955.31,3.28
5004.87,3.35
5054.91,3.41
5105.46,3.47
5156.52,3.52
5208.08,3.55
5260.16,3.57
5312.77,3.59
5365.89,3.57
5419.55,3.56
5473.75,3.52
5528.49,3.45
5583.77,3.38
5639.61,3.28
5696.00,3.17
5752.96,3.05
5810.49,2.93
5868.60,2.81
5927.28,2.69
5986.56,2.57
6046.42,2.49
6106.89,2.42
6167.96,2.38
6229.64,2.40
6291.93,2.42
6354.85,2.56
6418.40,2.72
6482.58,2.87
6547.41,3.09
6612.88,3.34
6679.01,3.59
6745.80,3.77
6813.26,3.93
6881.39,4.09
6950.21,4.11
7019.71,4.08
7089.91,4.05
7160.81,3.93
7232.41,3.80
7304.74,3.67
7377.79,3.62
7451.56,3.56
7526.08,3.56
7601.34,3.67
7677.35,3.79
7754.13,3.90
7831.67,4.07
7909.98,4.23
7989.08,4.39
8068.98,4.34
8149.67,4.26
8231.16,4.17
8313.47,3.78
8396.61,3.28
8480.57,2.79
8565.38,2.07
8651.03,1.29
8737.54,0.50
8824.92,-0.33
8913.17,-1.18
9002.30,-2.02
9092.32,-2.77
9183.25,-3.52
9275.08,-4.23
9367.83,-4.83
9461.51,-5.43
9556.12,-5.94
9651.68,-6.38
9748.20,-6.83
9845.68,-7.13
9944.14,-7.43
10043.58,-7.67
10144.02,-7.83
10245.46,-7.99
10347.91,-8.08
10451.39,-8.09
10555.91,-8.10
10661.46,-8.05
10768.08,-7.96
10875.76,-7.86
10984.52,-7.72
11094.36,-7.56
11205.31,-7.41
11317.36,-7.25
11430.53,-7.09
11544.84,-6.96
11660.29,-6.87
11776.89,-6.78
11894.66,-6.84
12013.60,-6.92
12133.74,-7.01
12255.08,-7.20
12377.63,-7.52
12501.41,-7.84
12626.42,-8.27
12752.68,-8.69
12880.21,-9.09
13009.01,-9.46
13139.10,-9.84
13270.49,-10.10
13403.20,-10.27
13537.23,-10.44
13672.60,-10.46
13809.33,-10.34
13947.42,-10.22
14086.90,-9.87
14227.77,-9.38
14370.04,-8.90
14513.74,-8.38
14658.88,-7.53
14805.47,-6.68
14953.52,-5.83
15103.06,-5.04
15254.09,-4.28
15406.63,-3.52
15560.70,-3.05
15716.30,-3.00
15873.47,-2.96
16032.20,-3.07
16192.52,-3.79
16354.45,-4.52
16517.99,-5.28
16683.17,-6.34
16850.01,-7.40
17018.51,-8.46
17188.69,-9.55
17360.58,-10.65
17534.18,-11.69
17709.53,-12.55
17886.62,-13.40
18065.49,-14.18
18246.14,-14.80
18428.60,-15.43
18612.89,-16.14
18799.02,-16.89
18987.01,-17.64
19176.88,-18.79
19368.65,-19.98
19562.33,-21.17
19757.96,-22.36
19955.54,-23.55
