frequency,raw
20.00,0.97
20.20,1.04
20.40,1.11
20.61,1.18
20.81,1.24
21.02,1.31
21.23,1.37
21.44,1.43
21.66,1.49
21.87,1.55
22.09,1.61
22.31,1.67
22.54,1.73
22.76,1.79
22.99,1.84
23.22,1.90
23.45,1.95
23.69,2.00
23.92,2.06
24.16,2.11
24.40,2.17
24.65,2.22
24.89,2.27
25.14,2.33
25.39,2.38
25.65,2.43
25.91,2.48
26.16,2.53
26.43,2.57
26.69,2.62
26.96,2.67
27.23,2.72
27.50,2.76
27.77,2.81
28.05,2.85
28.33,2.89
28.62,2.93
28.90,2.97
29.19,3.01
29.48,3.05
29.78,3.09
30.08,3.13
30.38,3.17
30.68,3.21
30.99,3.24
31.30,3.28
31.61,3.32
31.93,3.36
32.24,3.39
32.57,3.43
32.89,3.46
33.22,3.50
33.55,3.53
33.89,3.56
34.23,3.59
34.57,3.63
34.92,3.65
35.27,3.68
35.62,3.71
35.97,3.74
36.33,3.77
36.70,3.80
37.06,3.82
37.43,3.85
37.81,3.87
38.19,3.89
38.57,3.92
38.95,3.94
39.34,3.97
39.74,3.99
40.14,4.02
40.54,4.04
40.94,4.06
41.35,4.08
41.76,4.10
42.18,4.13
42.60,4.15
43.03,4.17
43.46,4.19
43.90,4.20
44.33,4.22
44.78,4.24
45.23,4.26
45.68,4.28
46.13,4.29
46.60,4.31
47.06,4.32
47.53,4.34
48.01,4.35
48.49,4.36
48.97,4.38
49.46,4.39
49.96,4.40
50.46,4.42
50.96,4.43
51.47,4.44
51.99,4.45
52.51,4.46
53.03,4.47
53.56,4.48
54.10,4.49
54.64,4.50
55.18,4.51
55.74,4.51
56.29,4.52
56.86,4.53
57.42,4.54
58.00,4.54
58.58,4.55
59.16,4.55
59.76,4.55
60.35,4.56
60.96,4.56
61.57,4.56
62.18,4.57
62.80,4.57
63.43,4.57
64.07,4.57
64.71,4.57
65.35,4.58
66.01,4.58
66.67,4.58
67.33,4.58
68.01,4.58
68.69,4.58
69.37,4.57
70.07,4.57
70.77,4.57
71.48,4.57
72.19,4.57
72.91,4.56
73.64,4.56
74.38,4.55
75.12,4.55
75.87,4.55
76.63,4.54
77.40,4.54
78.17,4.53
78.95,4.52
79.74,4.52
80.54,4.51
81.35,4.50
82.16,4.50
82.98,4.49
83.81,4.48
84.65,4.47
85.50,4.46
86.35,4.45
87.22,4.44
88.09,4.43
88.97,4.42
89.86,4.41
90.76,4.40
91.66,4.38
92.58,4.37
93.51,4.36
94.44,4.35
95.39,4.33
96.34,4.32
97.30,4.31
98.28,4.29
99.26,4.28
100.25,4.26
101.25,4.25
102.27,4.23
103.29,4.21
104.32,4.20
105.37,4.18
106.42,4.16
107.48,4.14
108.56,4.13
109.64,4.11
110.74,4.09
111.85,4.07
112.97,4.05
114.10,4.03
115.24,4.01
116.39,3.99
117.55,3.97
118.73,3.95
119.92,3.92
121.12,3.90
122.33,3.88
123.55,3.86
124.79,3.84
126.03,3.81
127.29,3.79
128.57,3.76
129.85,3.74
131.15,3.72
132.46,3.69
133.79,3.67
135.12,3.64
136.48,3.61
137.84,3.59
139.22,3.56
140.61,3.54
142.02,3.51
143.44,3.48
144.87,3.45
146.32,3.42
147.78,3.40
149.26,3.37
150.75,3.34
152.26,3.31
153.78,3.28
155.32,3.25
156.88,3.22
158.44,3.19
160.03,3.16
161.63,3.13
163.24,3.09
164.88,3.06
166.53,3.03
168.19,3.00
169.87,2.97
171.57,2.93
173.29,2.90
175.02,2.87
176.77,2.83
178.54,2.80
180.32,2.76
182.13,2.73
183.95,2.69
185.79,2.66
187.65,2.62
189.52,2.59
191.42,2.55
193.33,2.51
195.27,2.47
197.22,2.44
199.19,2.40
201.18,2.36
203.19,2.32
205.23,2.27
207.28,2.23
209.35,2.19
211.44,2.14
213.56,2.09
215.69,2.04
217.85,1.99
220.03,1.95
222.23,1.90
224.45,1.86
226.70,1.84
228.96,1.82
231.25,1.81
233.57,1.80
235.90,1.80
238.26,1.77
240.64,1.75
243.05,1.73
245.48,1.69
247.93,1.66
250.41,1.62
252.92,1.57
255.45,1.53
258.00,1.49
260.58,1.44
263.19,1.40
265.82,1.35
268.48,1.31
271.16,1.27
273.87,1.24
276.61,1.22
279.38,1.19
282.17,1.17
284.99,1.15
287.84,1.13
290.72,1.10
293.63,1.07
296.57,1.04
299.53,1.01
302.53,0.97
305.55,0.93
308.61,0.90
311.69,0.86
314.81,0.82
317.96,0.78
321.14,0.75
324.35,0.71
327.59,0.67
330.87,0.63
334.18,0.60
337.52,0.56
340.90,0.53
344.30,0.49
347.75,0.45
351.23,0.42
354.74,0.38
358.28,0.35
361.87,0.32
365.49,0.28
369.14,0.25
372.83,0.21
376.56,0.18
380.33,0.14
384.13,0.11
387.97,0.08
391.85,0.04
395.77,0.01
399.73,-0.02
403.72,-0.06
407.76,-0.09
411.84,-0.12
415.96,-0.15
420.12,-0.19
424.32,-0.22
428.56,-0.25
432.85,-0.28
437.18,-0.31
441.55,-0.34
445.96,-0.37
450.42,-0.40
454.93,-0.42
459.48,-0.44
464.07,-0.46
468.71,-0.49
473.40,-0.51
478.13,-0.53
482.91,-0.56
487.74,-0.58
492.62,-0.60
497.55,-0.63
502.52,-0.65
507.55,-0.68
512.62,-0.70
517.75,-0.73
522.93,-0.75
528.16,-0.77
533.44,-0.79
538.77,-0.82
544.16,-0.84
549.60,-0.86
555.10,-0.88
560.65,-0.90
566.25,-0.92
571.92,-0.94
577.64,-0.96
583.41,-0.97
589.25,-0.99
595.14,-1.01
601.09,-1.02
607.10,-1.04
613.17,-1.05
619.30,-1.07
625.50,-1.08
631.75,-1.09
638.07,-1.10
644.45,-1.12
650.89,-1.13
657.40,-1.14
663.98,-1.14
670.62,-1.15
677.32,-1.16
684.10,-1.16
690.94,-1.17
697.85,-1.17
704.83,-1.18
711.87,-1.18
718.99,-1.18
726.18,-1.17
733.44,-1.17
740.78,-1.17
748.19,-1.16
755.67,-1.15
763.23,-1.14
770.86,-1.13
778.57,-1.12
786.35,-1.10
794.22,-1.08
802.16,-1.07
810.18,-1.04
818.28,-1.02
826.46,-1.00
834.73,-0.97
843.08,-0.94
851.51,-0.91
860.02,-0.87
868.62,-0.83
877.31,-0.79
886.08,-0.75
894.94,-0.70
903.89,-0.65
912.93,-0.60
922.06,-0.54
931.28,-0.49
940.59,-0.43
950.00,-0.37
959.50,-0.30
969.09,-0.23
978.78,-0.16
988.57,-0.09
998.46,-0.01
1008.44,0.07
1018.53,0.15
1028.71,0.23
1039.00,0.31
1049.39,0.40
1059.88,0.48
1070.48,0.57
1081.19,0.66
1092.00,0.75
1102.92,0.83
1113.95,0.92
1125.09,1.01
1136.34,1.10
1147.70,1.19
1159.18,1.28
1170.77,1.37
1182.48,1.46
1194.30,1.55
1206.25,1.64
1218.31,1.73
1230.49,1.82
1242.80,1.90
1255.22,1.99
1267.78,2.08
1280.45,2.16
1293.26,2.25
1306.19,2.33
1319.25,2.41
1332.45,2.49
1345.77,2.58
1359.23,2.66
1372.82,2.74
1386.55,2.82
1400.41,2.91
1414.42,2.99
1428.56,3.08
1442.85,3.16
1457.28,3.24
1471.85,3.33
1486.57,3.42
1501.43,3.50
1516.45,3.59
1531.61,3.68
1546.93,3.77
1562.40,3.86
1578.02,3.95
1593.80,4.04
1609.74,4.13
1625.84,4.22
1642.10,4.31
1658.52,4.40
1675.10,4.49
1691.85,4.59
1708.77,4.68
1725.86,4.77
1743.12,4.87
1760.55,4.96
1778.15,5.05
1795.94,5.15
1813.90,5.24
1832.03,5.33
1850.36,5.43
1868.86,5.52
1887.55,5.62
1906.42,5.71
1925.49,5.80
1944.74,5.90
1964.19,5.99
1983.83,6.08
2003.67,6.17
2023.71,6.26
2043.94,6.35
2064.38,6.44
2085.03,6.53
2105.88,6.62
2126.94,6.70
2148.20,6.79
2169.69,6.87
2191.38,6.95
2213.30,7.04
2235.43,7.12
2257.78,7.20
2280.36,7.28
2303.17,7.35
2326.20,7.43
2349.46,7.50
2372.95,7.56
2396.68,7.63
2420.65,7.69
2444.86,7.74
2469.31,7.78
2494.00,7.83
2518.94,7.86
2544.13,7.89
2569.57,7.92
2595.27,7.94
2621.22,7.96
2647.43,7.97
2673.90,7.97
2700.64,7.97
2727.65,7.97
2754.93,7.95
2782.48,7.94
2810.30,7.91
2838.40,7.88
2866.79,7.85
2895.46,7.81
2924.41,7.77
2953.65,7.72
2983.19,7.67
3013.02,7.61
3043.15,7.55
3073.58,7.49
3104.32,7.42
3135.36,7.35
3166.72,7.28
3198.38,7.20
3230.37,7.13
3262.67,7.05
3295.30,6.97
3328.25,6.89
3361.53,6.81
3395.15,6.73
3429.10,6.65
3463.39,6.57
3498.03,6.49
3533.01,6.41
3568.34,6.33
3604.02,6.26
3640.06,6.18
3676.46,6.11
3713.22,6.05
3750.36,5.98
3787.86,5.93
3825.74,5.88
3864.00,5.83
3902.64,5.80
3941.66,5.77
3981.08,5.73
4020.89,5.71
4061.10,5.68
4101.71,5.66
4142.73,5.63
4184.15,5.61
4226.00,5.59
4268.26,5.57
4310.94,5.56
4354.05,5.55
4397.59,5.54
4441.56,5.53
4485.98,5.53
4530.84,5.52
4576.15,5.52
4621.91,5.52
4668.13,5.52
4714.81,5.51
4761.96,5.51
4809.58,5.50
4857.67,5.50
4906.25,5.49
4955.31,5.47
5004.87,5.46
5054.91,5.44
5105.46,5.42
5156.52,5.40
5208.08,5.37
5260.16,5.35
5312.77,5.32
5365.89,5.28
5419.55,5.24
5473.75,5.20
5528.49,5.15
5583.77,5.10
5639.61,5.04
5696.00,4.98
5752.96,4.92
5810.49,4.86
5868.60,4.79
5927.28,4.73
5986.56,4.66
6046.42,4.60
6106.89,4.54
6167.96,4.48
6229.64,4.43
6291.93,4.38
6354.85,4.36
6418.40,4.34
6482.58,4.32
6547.41,4.33
6612.88,4.35
6679.01,4.37
6745.80,4.42
6813.26,4.49
6881.39,4.57
6950.21,4.68
7019.71,4.82
7089.91,4.95
7160.81,5.14
7232.41,5.34
7304.74,5.55
7377.79,5.79
7451.56,6.04
7526.08,6.28
7601.34,6.50
7677.35,6.72
7754.13,6.94
7831.67,6.99
7909.98,7.04
7989.08,7.09
8068.98,6.86
8149.67,6.59
8231.16,6.32
8313.47,5.78
8396.61,5.17
8480.57,4.56
8565.38,3.79
8651.03,2.98
8737.54,2.16
8824.92,1.32
8913.17,0.48
9002.30,-0.36
9092.32,-1.05
9183.25,-1.73
9275.08,-2.35
9367.83,-2.78
9461.51,-3.20
9556.12,-3.54
9651.68,-3.81
9748.20,-4.08
9845.68,-4.33
9944.14,-4.58
10043.58,-4.80
10144.02,-4.96
10245.46,-5.13
10347.91,-5.23
10451.39,-5.25
10555.91,-5.27
10661.46,-5.28
10768.08,-5.29
10875.76,-5.30
10984.52,-5.35
11094.36,-5.40
11205.31,-5.46
11317.36,-5.50
11430.53,-5.55
11544.84,-5.57
11660.29,-5.54
11776.89,-5.51
11894.66,-5.38
12013.60,-5.23
12133.74,-5.08
12255.08,-4.85
12377.63,-4.53
12501.41,-4.21
12626.42,-3.71
12752.68,-3.21
12880.21,-2.54
13009.01,-1.78
13139.10,-1.02
13270.49,-0.13
13403.20,0.85
13537.23,1.84
13672.60,2.72
13809.33,3.50
13947.42,4.28
14086.90,4.53
14227.77,4.45
14370.04,4.37
14513.74,4.22
14658.88,3.29
14805.47,2.36
14953.52,1.44
15103.06,0.45
15254.09,-0.56
15406.63,-1.57
15560.70,-2.46
15716.30,-3.17
15873.47,-3.88
16032.20,-4.53
16192.52,-4.96
16354.45,-5.38
16517.99,-5.79
16683.17,-6.07
16850.01,-6.35
17018.51,-6.63
17188.69,-6.94
17360.58,-7.24
17534.18,-7.55
17709.53,-7.94
17886.62,-8.32
18065.49,-8.70
18246.14,-9.08
18428.60,-9.45
18612.89,-9.87
18799.02,-10.31
18987.01,-10.74
19176.88,-11.57
19368.65,-12.43
19562.33,-13.26
19757.96,-14.04
19955.54,-14.83
