frequency,raw
20.00,6.62
20.20,6.68
20.40,6.74
20.61,6.80
20.81,6.85
21.02,6.91
21.23,6.96
21.44,7.01
21.66,7.06
21.87,7.12
22.09,7.16
22.31,7.21
22.54,7.26
22.76,7.31
22.99,7.35
23.22,7.40
23.45,7.44
23.69,7.49
23.92,7.53
24.16,7.57
24.40,7.61
24.65,7.65
24.89,7.68
25.14,7.72
25.39,7.76
25.65,7.79
25.91,7.83
26.16,7.86
26.43,7.89
26.69,7.92
26.96,7.95
27.23,7.98
27.50,8.01
27.77,8.04
28.05,8.06
28.33,8.09
28.62,8.11
28.90,8.13
29.19,8.16
29.48,8.18
29.78,8.20
30.08,8.22
30.38,8.23
30.68,8.25
30.99,8.27
31.30,8.28
31.61,8.29
31.93,8.31
32.24,8.32
32.57,8.33
32.89,8.34
33.22,8.35
33.55,8.36
33.89,8.37
34.23,8.38
34.57,8.38
34.92,8.39
35.27,8.39
35.62,8.40
35.97,8.40
36.33,8.40
36.70,8.40
37.06,8.40
37.43,8.40
37.81,8.40
38.19,8.40
38.57,8.40
38.95,8.39
39.34,8.39
39.74,8.38
40.14,8.38
40.54,8.37
40.94,8.36
41.35,8.35
41.76,8.34
42.18,8.33
42.60,8.32
43.03,8.31
43.46,8.30
43.90,8.28
44.33,8.27
44.78,8.26
45.23,8.24
45.68,8.23
46.13,8.21
46.60,8.19
47.06,8.17
47.53,8.15
48.01,8.13
48.49,8.11
48.97,8.09
49.46,8.07
49.96,8.04
50.46,8.02
50.96,7.99
51.47,7.97
51.99,7.94
52.51,7.92
53.03,7.89
53.56,7.86
54.10,7.83
54.64,7.81
55.18,7.78
55.74,7.75
56.29,7.72
56.86,7.69
57.42,7.65
58.00,7.62
58.58,7.59
59.16,7.55
59.76,7.52
60.35,7.48
60.96,7.45
61.57,7.41
62.18,7.38
62.80,7.34
63.43,7.30
64.07,7.26
64.71,7.22
65.35,7.18
66.01,7.14
66.67,7.10
67.33,7.06
68.01,7.02
68.69,6.98
69.37,6.94
70.07,6.90
70.77,6.85
71.48,6.81
72.19,6.76
72.91,6.72
73.64,6.67
74.38,6.63
75.12,6.59
75.87,6.54
76.63,6.50
77.40,6.45
78.17,6.40
78.95,6.36
79.74,6.31
80.54,6.26
81.35,6.21
82.16,6.17
82.98,6.12
83.81,6.07
84.65,6.02
85.50,5.96
86.35,5.91
87.22,5.86
88.09,5.81
88.97,5.76
89.86,5.70
90.76,5.65
91.66,5.60
92.58,5.55
93.51,5.49
94.44,5.44
95.39,5.38
96.34,5.33
97.30,5.27
98.28,5.22
99.26,5.16
100.25,5.11
101.25,5.05
102.27,4.99
103.29,4.94
104.32,4.88
105.37,4.82
106.42,4.77
107.48,4.71
108.56,4.65
109.64,4.59
110.74,4.54
111.85,4.48
112.97,4.42
114.10,4.36
115.24,4.30
116.39,4.24
117.55,4.18
118.73,4.13
119.92,4.07
121.12,4.01
122.33,3.95
123.55,3.89
124.79,3.83
126.03,3.77
127.29,3.71
128.57,3.65
129.85,3.59
131.15,3.53
132.46,3.46
133.79,3.40
135.12,3.34
136.48,3.28
137.84,3.21
139.22,3.15
140.61,3.09
142.02,3.02
143.44,2.96
144.87,2.90
146.32,2.84
147.78,2.78
149.26,2.72
150.75,2.66
152.26,2.60
153.78,2.54
155.32,2.49
156.88,2.43
158.44,2.38
160.03,2.33
161.63,2.28
163.24,2.23
164.88,2.18
166.53,2.13
168.19,2.08
169.87,2.03
171.57,1.98
173.29,1.93
175.02,1.88
176.77,1.83
178.54,1.78
180.32,1.73
182.13,1.69
183.95,1.64
185.79,1.59
187.65,1.55
189.52,1.50
191.42,1.45
193.33,1.40
195.27,1.35
197.22,1.30
199.19,1.24
201.18,1.18
203.19,1.13
205.23,1.07
207.28,1.01
209.35,0.95
211.44,0.90
213.56,0.84
215.69,0.78
217.85,0.73
220.03,0.67
222.23,0.62
224.45,0.56
226.70,0.51
228.96,0.45
231.25,0.40
233.57,0.35
235.90,0.29
238.26,0.24
240.64,0.19
243.05,0.14
245.48,0.09
247.93,0.03
250.41,-0.02
252.92,-0.07
255.45,-0.12
258.00,-0.17
260.58,-0.21
263.19,-0.26
265.82,-0.31
268.48,-0.35
271.16,-0.40
273.87,-0.44
276.61,-0.49
279.38,-0.53
282.17,-0.58
284.99,-0.62
287.84,-0.66
290.72,-0.71
293.63,-0.75
296.57,-0.79
299.53,-0.84
302.53,-0.88
305.55,-0.92
308.61,-0.96
311.69,-1.00
314.81,-1.04
317.96,-1.08
321.14,-1.12
324.35,-1.16
327.59,-1.20
330.87,-1.24
334.18,-1.28
337.52,-1.31
340.90,-1.35
344.30,-1.39
347.75,-1.42
351.23,-1.45
354.74,-1.49
358.28,-1.52
361.87,-1.55
365.49,-1.59
369.14,-1.62
372.83,-1.65
376.56,-1.68
380.33,-1.71
384.13,-1.74
387.97,-1.77
391.85,-1.80
395.77,-1.82
399.73,-1.85
403.72,-1.88
407.76,-1.90
411.84,-1.93
415.96,-1.95
420.12,-1.97
424.32,-2.00
428.56,-2.02
432.85,-2.04
437.18,-2.06
441.55,-2.07
445.96,-2.09
450.42,-2.11
454.93,-2.12
459.48,-2.13
464.07,-2.14
468.71,-2.15
473.40,-2.17
478.13,-2.17
482.91,-2.18
487.74,-2.19
492.62,-2.20
497.55,-2.20
502.52,-2.21
507.55,-2.21
512.62,-2.22
517.75,-2.22
522.93,-2.22
528.16,-2.22
533.44,-2.22
538.77,-2.22
544.16,-2.22
549.60,-2.21
555.10,-2.21
560.65,-2.21
566.25,-2.20
571.92,-2.20
577.64,-2.19
583.41,-2.18
589.25,-2.18
595.14,-2.17
601.09,-2.16
607.10,-2.15
613.17,-2.14
619.30,-2.12
625.50,-2.11
631.75,-2.10
638.07,-2.08
644.45,-2.06
650.89,-2.05
657.40,-2.03
663.98,-2.01
670.62,-1.99
677.32,-1.97
684.10,-1.95
690.94,-1.93
697.85,-1.90
704.83,-1.88
711.87,-1.86
718.99,-1.83
726.18,-1.81
733.44,-1.79
740.78,-1.76
748.19,-1.73
755.67,-1.70
763.23,-1.67
770.86,-1.64
778.57,-1.61
786.35,-1.57
794.22,-1.53
802.16,-1.48
810.18,-1.44
818.28,-1.39
826.46,-1.34
834.73,-1.28
843.08,-1.23
851.51,-1.17
860.02,-1.11
868.62,-1.05
877.31,-0.99
886.08,-0.93
894.94,-0.87
903.89,-0.80
912.93,-0.73
922.06,-0.66
931.28,-0.58
940.59,-0.50
950.00,-0.43
959.50,-0.35
969.09,-0.27
978.78,-0.18
988.57,-0.10
998.46,-0.01
1008.44,0.07
1018.53,0.16
1028.71,0.25
1039.00,0.34
1049.39,0.44
1059.88,0.53
1070.48,0.62
1081.19,0.71
1092.00,0.81
1102.92,0.90
1113.95,0.99
1125.09,1.08
1136.34,1.17
1147.70,1.27
1159.18,1.35
1170.77,1.44
1182.48,1.53
1194.30,1.62
1206.25,1.70
1218.31,1.79
1230.49,1.87
1242.80,1.96
1255.22,2.04
1267.78,2.12
1280.45,2.20
1293.26,2.28
1306.19,2.35
1319.25,2.43
1332.45,2.51
1345.77,2.58
1359.23,2.65
1372.82,2.73
1386.55,2.80
1400.41,2.87
1414.42,2.94
1428.56,3.01
1442.85,3.09
1457.28,3.16
1471.85,3.23
1486.57,3.30
1501.43,3.37
1516.45,3.44
1531.61,3.52
1546.93,3.59
1562.40,3.66
1578.02,3.74
1593.80,3.81
1609.74,3.89
1625.84,3.96
1642.10,4.04
1658.52,4.11
1675.10,4.19
1691.85,4.27
1708.77,4.35
1725.86,4.44
1743.12,4.52
1760.55,4.60
1778.15,4.69
1795.94,4.77
1813.90,4.86
1832.03,4.95
1850.36,5.03
1868.86,5.12
1887.55,5.21
1906.42,5.31
1925.49,5.40
1944.74,5.49
1964.19,5.59
1983.83,5.68
2003.67,5.78
2023.71,5.88
2043.94,5.98
2064.38,6.07
2085.03,6.17
2105.88,6.27
2126.94,6.37
2148.20,6.47
2169.69,6.56
2191.38,6.66
2213.30,6.75
2235.43,6.84
2257.78,6.92
2280.36,7.01
2303.17,7.09
2326.20,7.16
2349.46,7.24
2372.95,7.30
2396.68,7.36
2420.65,7.43
2444.86,7.48
2469.31,7.53
2494.00,7.57
2518.94,7.60
2544.13,7.63
2569.57,7.66
2595.27,7.67
2621.22,7.67
2647.43,7.67
2673.90,7.64
2700.64,7.62
2727.65,7.58
2754.93,7.53
2782.48,7.47
2810.30,7.40
2838.40,7.32
2866.79,7.23
2895.46,7.15
2924.41,7.04
2953.65,6.92
2983.19,6.81
3013.02,6.68
3043.15,6.54
3073.58,6.39
3104.32,6.24
3135.36,6.09
3166.72,5.95
3198.38,5.83
3230.37,5.70
3262.67,5.60
3295.30,5.53
3328.25,5.45
3361.53,5.39
3395.15,5.36
3429.10,5.32
3463.39,5.28
3498.03,5.25
3533.01,5.23
3568.34,5.20
3604.02,5.18
3640.06,5.15
3676.46,5.14
3713.22,5.12
3750.36,5.11
3787.86,5.11
3825.74,5.11
3864.00,5.11
3902.64,5.11
3941.66,5.13
3981.08,5.14
4020.89,5.15
4061.10,5.18
4101.71,5.20
4142.73,5.23
4184.15,5.27
4226.00,5.30
4268.26,5.34
4310.94,5.37
4354.05,5.41
4397.59,5.45
4441.56,5.49
4485.98,5.53
4530.84,5.57
4576.15,5.60
4621.91,5.63
4668.13,5.65
4714.81,5.67
4761.96,5.69
4809.58,5.68
4857.67,5.68
4906.25,5.66
4955.31,5.63
5004.87,5.60
5054.91,5.54
5105.46,5.48
5156.52,5.41
5208.08,5.32
5260.16,5.23
5312.77,5.13
5365.89,5.01
5419.55,4.90
5473.75,4.78
5528.49,4.65
5583.77,4.52
5639.61,4.38
5696.00,4.25
5752.96,4.11
5810.49,3.98
5868.60,3.85
5927.28,3.73
5986.56,3.61
6046.42,3.50
6106.89,3.41
6167.96,3.32
6229.64,3.25
6291.93,3.17
6354.85,3.09
6418.40,3.02
6482.58,2.94
6547.41,2.85
6612.88,2.75
6679.01,2.66
6745.80,2.54
6813.26,2.41
6881.39,2.29
6950.21,2.16
7019.71,2.03
7089.91,1.90
7160.81,1.78
7232.41,1.67
7304.74,1.55
7377.79,1.42
7451.56,1.29
7526.08,1.13
7601.34,0.91
7677.35,0.69
7754.13,0.46
7831.67,0.11
7909.98,-0.25
7989.08,-0.60
8068.98,-1.05
8149.67,-1.51
8231.16,-1.97
8313.47,-2.46
8396.61,-2.97
8480.57,-3.47
8565.38,-3.95
8651.03,-4.43
8737.54,-4.90
8824.92,-5.32
8913.17,-5.72
9002.30,-6.12
9092.32,-6.42
9183.25,-6.72
9275.08,-7.01
9367.83,-7.23
9461.51,-7.45
9556.12,-7.63
9651.68,-7.78
9748.20,-7.92
9845.68,-7.91
9944.14,-7.89
10043.58,-7.81
10144.02,-7.63
10245.46,-7.45
10347.91,-7.23
10451.39,-6.98
10555.91,-6.72
10661.46,-6.46
10768.08,-6.19
10875.76,-5.93
10984.52,-5.70
11094.36,-5.47
11205.31,-5.25
11317.36,-5.12
11430.53,-4.99
11544.84,-4.91
11660.29,-4.90
11776.89,-4.90
11894.66,-4.97
12013.60,-5.07
12133.74,-5.17
12255.08,-5.25
12377.63,-5.31
12501.41,-5.37
12626.42,-5.20
12752.68,-5.04
12880.21,-4.64
13009.01,-4.09
13139.10,-3.54
13270.49,-2.90
13403.20,-2.17
13537.23,-1.45
13672.60,-0.83
13809.33,-0.32
13947.42,0.19
14086.90,0.30
14227.77,0.17
14370.04,0.05
14513.74,-0.14
14658.88,-0.94
14805.47,-1.73
14953.52,-2.53
15103.06,-3.48
15254.09,-4.51
15406.63,-5.54
15560.70,-6.44
15716.30,-7.14
15873.47,-7.84
16032.20,-8.43
16192.52,-8.65
16354.45,-8.86
16517.99,-9.07
16683.17,-9.26
16850.01,-9.44
17018.51,-9.63
17188.69,-9.79
17360.58,-9.96
17534.18,-10.11
17709.53,-10.19
17886.62,-10.26
18065.49,-10.54
18246.14,-11.17
18428.60,-11.80
18612.89,-12.81
18799.02,-14.07
18987.01,-15.33
19176.88,-16.82
19368.65,-18.32
19562.33,-19.68
19757.96,-20.72
19955.54,-21.76
