frequency,raw
20.00,4.16
20.20,4.20
20.40,4.23
20.61,4.26
20.81,4.30
21.02,4.33
21.23,4.37
21.44,4.41
21.66,4.45
21.87,4.50
22.09,4.55
22.31,4.61
22.54,4.66
22.76,4.72
22.99,4.77
23.22,4.81
23.45,4.84
23.69,4.86
23.92,4.87
24.16,4.88
24.40,4.90
24.65,4.92
24.89,4.94
25.14,4.97
25.39,5.01
25.65,5.05
25.91,5.09
26.16,5.12
26.43,5.15
26.69,5.19
26.96,5.22
27.23,5.25
27.50,5.27
27.77,5.30
28.05,5.33
28.33,5.35
28.62,5.37
28.90,5.39
29.19,5.41
29.48,5.44
29.78,5.47
30.08,5.49
30.38,5.50
30.68,5.52
30.99,5.53
31.30,5.53
31.61,5.55
31.93,5.58
32.24,5.62
32.57,5.65
32.89,5.66
33.22,5.68
33.55,5.69
33.89,5.69
34.23,5.69
34.57,5.69
34.92,5.71
35.27,5.72
35.62,5.74
35.97,5.75
36.33,5.76
36.70,5.77
37.06,5.77
37.43,5.78
37.81,5.78
38.19,5.79
38.57,5.79
38.95,5.80
39.34,5.80
39.74,5.81
40.14,5.81
40.54,5.82
40.94,5.82
41.35,5.82
41.76,5.80
42.18,5.78
42.60,5.77
43.03,5.78
43.46,5.79
43.90,5.80
44.33,5.82
44.78,5.83
45.23,5.84
45.68,5.83
46.13,5.82
46.60,5.80
47.06,5.78
47.53,5.76
48.01,5.74
48.49,5.71
48.97,5.70
49.46,5.68
49.96,5.67
50.46,5.66
50.96,5.66
51.47,5.66
51.99,5.65
52.51,5.64
53.03,5.63
53.56,5.61
54.10,5.60
54.64,5.59
55.18,5.57
55.74,5.55
56.29,5.53
56.86,5.51
57.42,5.48
58.00,5.46
58.58,5.44
59.16,5.43
59.76,5.42
60.35,5.40
60.96,5.39
61.57,5.38
62.18,5.36
62.80,5.34
63.43,5.32
64.07,5.30
64.71,5.28
65.35,5.25
66.01,5.22
66.67,5.19
67.33,5.15
68.01,5.12
68.69,5.09
69.37,5.06
70.07,5.04
70.77,5.01
71.48,4.98
72.19,4.96
72.91,4.94
73.64,4.92
74.38,4.89
75.12,4.86
75.87,4.83
76.63,4.80
77.40,4.77
78.17,4.74
78.95,4.71
79.74,4.68
80.54,4.65
81.35,4.62
82.16,4.58
82.98,4.54
83.81,4.51
84.65,4.47
85.50,4.43
86.35,4.40
87.22,4.36
88.09,4.33
88.97,4.29
89.86,4.25
90.76,4.21
91.66,4.18
92.58,4.14
93.51,4.10
94.44,4.07
95.39,4.03
96.34,3.99
97.30,3.94
98.28,3.90
99.26,3.85
100.25,3.81
101.25,3.77
102.27,3.74
103.29,3.70
104.32,3.66
105.37,3.62
106.42,3.58
107.48,3.54
108.56,3.49
109.64,3.45
110.74,3.41
111.85,3.36
112.97,3.32
114.10,3.28
115.24,3.23
116.39,3.19
117.55,3.14
118.73,3.09
119.92,3.04
121.12,2.99
122.33,2.94
123.55,2.90
124.79,2.85
126.03,2.80
127.29,2.75
128.57,2.70
129.85,2.66
131.15,2.61
132.46,2.57
133.79,2.53
135.12,2.48
136.48,2.44
137.84,2.39
139.22,2.34
140.61,2.29
142.02,2.24
143.44,2.20
144.87,2.15
146.32,2.10
147.78,2.05
149.26,2.00
150.75,1.96
152.26,1.91
153.78,1.87
155.32,1.82
156.88,1.77
158.44,1.73
160.03,1.68
161.63,1.64
163.24,1.59
164.88,1.55
166.53,1.51
168.19,1.47
169.87,1.43
171.57,1.38
173.29,1.34
175.02,1.29
176.77,1.25
178.54,1.20
180.32,1.16
182.13,1.11
183.95,1.06
185.79,1.02
187.65,0.97
189.52,0.93
191.42,0.89
193.33,0.85
195.27,0.81
197.22,0.77
199.19,0.73
201.18,0.69
203.19,0.65
205.23,0.61
207.28,0.57
209.35,0.53
211.44,0.49
213.56,0.45
215.69,0.41
217.85,0.37
220.03,0.33
222.23,0.29
224.45,0.25
226.70,0.21
228.96,0.17
231.25,0.13
233.57,0.09
235.90,0.05
238.26,0.01
240.64,-0.04
243.05,-0.08
245.48,-0.12
247.93,-0.16
250.41,-0.20
252.92,-0.24
255.45,-0.28
258.00,-0.32
260.58,-0.36
263.19,-0.40
265.82,-0.44
268.48,-0.47
271.16,-0.51
273.87,-0.55
276.61,-0.59
279.38,-0.63
282.17,-0.67
284.99,-0.70
287.84,-0.74
290.72,-0.77
293.63,-0.81
296.57,-0.84
299.53,-0.88
302.53,-0.91
305.55,-0.94
308.61,-0.97
311.69,-1.00
314.81,-1.04
317.96,-1.07
321.14,-1.10
324.35,-1.13
327.59,-1.16
330.87,-1.19
334.18,-1.22
337.52,-1.25
340.90,-1.27
344.30,-1.30
347.75,-1.32
351.23,-1.34
354.74,-1.36
358.28,-1.39
361.87,-1.41
365.49,-1.44
369.14,-1.46
372.83,-1.49
376.56,-1.51
380.33,-1.54
384.13,-1.56
387.97,-1.58
391.85,-1.60
395.77,-1.62
399.73,-1.64
403.72,-1.66
407.76,-1.68
411.84,-1.70
415.96,-1.72
420.12,-1.73
424.32,-1.75
428.56,-1.77
432.85,-1.79
437.18,-1.80
441.55,-1.82
445.96,-1.83
450.42,-1.85
454.93,-1.86
459.48,-1.87
464.07,-1.89
468.71,-1.90
473.40,-1.91
478.13,-1.92
482.91,-1.93
487.74,-1.94
492.62,-1.95
497.55,-1.96
502.52,-1.97
507.55,-1.98
512.62,-1.98
517.75,-1.99
522.93,-2.00
528.16,-2.00
533.44,-2.01
538.77,-2.02
544.16,-2.02
549.60,-2.03
555.10,-2.03
560.65,-2.04
566.25,-2.04
571.92,-2.04
577.64,-2.04
583.41,-2.03
589.25,-2.03
595.14,-2.03
601.09,-2.03
607.10,-2.02
613.17,-2.02
619.30,-2.01
625.50,-2.00
631.75,-1.99
638.07,-1.98
644.45,-1.96
650.89,-1.95
657.40,-1.94
663.98,-1.93
670.62,-1.91
677.32,-1.90
684.10,-1.88
690.94,-1.86
697.85,-1.84
704.83,-1.82
711.87,-1.80
718.99,-1.78
726.18,-1.75
733.44,-1.72
740.78,-1.69
748.19,-1.66
755.67,-1.63
763.23,-1.60
770.86,-1.56
778.57,-1.53
786.35,-1.49
794.22,-1.44
802.16,-1.40
810.18,-1.36
818.28,-1.31
826.46,-1.26
834.73,-1.20
843.08,-1.15
851.51,-1.09
860.02,-1.03
868.62,-0.96
877.31,-0.90
886.08,-0.83
894.94,-0.76
903.89,-0.69
912.93,-0.61
922.06,-0.54
931.28,-0.47
940.59,-0.39
950.00,-0.32
959.50,-0.25
969.09,-0.18
978.78,-0.12
988.57,-0.06
998.46,-0.01
1008.44,0.03
1018.53,0.07
1028.71,0.10
1039.00,0.12
1049.39,0.14
1059.88,0.16
1070.48,0.18
1081.19,0.20
1092.00,0.22
1102.92,0.26
1113.95,0.29
1125.09,0.34
1136.34,0.40
1147.70,0.46
1159.18,0.54
1170.77,0.62
1182.48,0.70
1194.30,0.79
1206.25,0.89
1218.31,0.98
1230.49,1.08
1242.80,1.18
1255.22,1.28
1267.78,1.38
1280.45,1.48
1293.26,1.59
1306.19,1.69
1319.25,1.79
1332.45,1.90
1345.77,2.00
1359.23,2.11
1372.82,2.21
1386.55,2.31
1400.41,2.42
1414.42,2.52
1428.56,2.63
1442.85,2.73
1457.28,2.84
1471.85,2.94
1486.57,3.05
1501.43,3.16
1516.45,3.27
1531.61,3.39
1546.93,3.50
1562.40,3.62
1578.02,3.74
1593.80,3.86
1609.74,3.99
1625.84,4.12
1642.10,4.25
1658.52,4.39
1675.10,4.53
1691.85,4.67
1708.77,4.82
1725.86,4.97
1743.12,5.12
1760.55,5.28
1778.15,5.44
1795.94,5.60
1813.90,5.77
1832.03,5.95
1850.36,6.13
1868.86,6.32
1887.55,6.52
1906.42,6.73
1925.49,6.94
1944.74,7.16
1964.19,7.38
1983.83,7.61
2003.67,7.83
2023.71,8.04
2043.94,8.25
2064.38,8.46
2085.03,8.64
2105.88,8.82
2126.94,8.98
2148.20,9.12
2169.69,9.25
2191.38,9.34
2213.30,9.40
2235.43,9.47
2257.78,9.46
2280.36,9.44
2303.17,9.41
2326.20,9.34
2349.46,9.27
2372.95,9.20
2396.68,9.14
2420.65,9.07
2444.86,9.01
2469.31,8.96
2494.00,8.90
2518.94,8.83
2544.13,8.77
2569.57,8.70
2595.27,8.62
2621.22,8.52
2647.43,8.43
2673.90,8.32
2700.64,8.20
2727.65,8.07
2754.93,7.93
2782.48,7.78
2810.30,7.63
2838.40,7.46
2866.79,7.29
2895.46,7.13
2924.41,6.98
2953.65,6.83
2983.19,6.68
3013.02,6.54
3043.15,6.40
3073.58,6.25
3104.32,6.09
3135.36,5.93
3166.72,5.77
3198.38,5.59
3230.37,5.42
3262.67,5.25
3295.30,5.11
3328.25,4.97
3361.53,4.84
3395.15,4.74
3429.10,4.65
3463.39,4.57
3498.03,4.50
3533.01,4.44
3568.34,4.38
3604.02,4.33
3640.06,4.27
3676.46,4.22
3713.22,4.17
3750.36,4.12
3787.86,4.08
3825.74,4.04
3864.00,4.00
3902.64,3.99
3941.66,3.98
3981.08,3.97
4020.89,3.98
4061.10,4.00
4101.71,4.03
4142.73,4.07
4184.15,4.13
4226.00,4.19
4268.26,4.25
4310.94,4.32
4354.05,4.39
4397.59,4.46
4441.56,4.53
4485.98,4.60
4530.84,4.67
4576.15,4.73
4621.91,4.79
4668.13,4.82
4714.81,4.86
4761.96,4.89
4809.58,4.88
4857.67,4.88
4906.25,4.84
4955.31,4.79
5004.87,4.74
5054.91,4.66
5105.46,4.57
5156.52,4.49
5208.08,4.38
5260.16,4.28
5312.77,4.18
5365.89,4.11
5419.55,4.04
5473.75,4.01
5528.49,4.01
5583.77,4.01
5639.61,4.03
5696.00,4.05
5752.96,4.07
5810.49,4.08
5868.60,4.03
5927.28,3.99
5986.56,3.94
6046.42,3.84
6106.89,3.73
6167.96,3.61
6229.64,3.48
6291.93,3.35
6354.85,3.26
6418.40,3.17
6482.58,3.08
6547.41,3.05
6612.88,3.04
6679.01,3.03
6745.80,3.08
6813.26,3.15
6881.39,3.22
6950.21,3.36
7019.71,3.52
7089.91,3.68
7160.81,3.91
7232.41,4.15
7304.74,4.40
7377.79,4.74
7451.56,5.07
7526.08,5.44
7601.34,5.89
7677.35,6.33
7754.13,6.76
7831.67,7.10
7909.98,7.43
7989.08,7.77
8068.98,7.67
8149.67,7.51
8231.16,7.35
8313.47,6.74
8396.61,5.99
8480.57,5.25
8565.38,4.30
8651.03,3.28
8737.54,2.27
8824.92,1.30
8913.17,0.32
9002.30,-0.65
9092.32,-1.49
9183.25,-2.33
9275.08,-3.15
9367.83,-3.88
9461.51,-4.62
9556.12,-5.30
9651.68,-5.95
9748.20,-6.60
9845.68,-7.17
9944.14,-7.73
10043.58,-8.17
10144.02,-8.45
10245.46,-8.73
10347.91,-8.89
10451.39,-8.92
10555.91,-8.95
10661.46,-8.94
10768.08,-8.91
10875.76,-8.88
10984.52,-8.74
11094.36,-8.58
11205.31,-8.42
11317.36,-8.10
11430.53,-7.79
11544.84,-7.43
11660.29,-7.01
11776.89,-6.60
11894.66,-6.20
12013.60,-5.82
12133.74,-5.43
12255.08,-5.17
12377.63,-5.05
12501.41,-4.94
12626.42,-5.12
12752.68,-5.30
12880.21,-5.56
13009.01,-5.86
13139.10,-6.16
13270.49,-6.34
13403.20,-6.42
13537.23,-6.49
13672.60,-6.43
13809.33,-6.24
13947.42,-6.05
14086.90,-5.72
14227.77,-5.29
14370.04,-4.87
14513.74,-4.42
14658.88,-3.72
14805.47,-3.02
14953.52,-2.31
15103.06,-1.52
15254.09,-0.68
15406.63,0.15
15560.70,0.88
15716.30,1.44
15873.47,2.01
16032.20,2.45
16192.52,2.43
16354.45,2.42
16517.99,2.35
16683.17,1.92
16850.01,1.49
17018.51,1.04
17188.69,0.53
17360.58,0.01
17534.18,-0.50
17709.53,-1.03
17886.62,-1.56
18065.49,-2.10
18246.14,-2.66
18428.60,-3.22
18612.89,-3.80
18799.02,-4.39
18987.01,-4.97
19176.88,-5.62
19368.65,-6.27
19562.33,-6.88
19757.96,-7.39
19955.54,-7.90
