frequency,raw
20.00,3.58
20.20,3.62
20.40,3.66
20.61,3.71
20.81,3.75
21.02,3.79
21.23,3.83
21.44,3.88
21.66,3.92
21.87,3.96
22.09,4.00
22.31,4.04
22.54,4.07
22.76,4.11
22.99,4.15
23.22,4.18
23.45,4.21
23.69,4.24
23.92,4.28
24.16,4.31
24.40,4.34
24.65,4.37
24.89,4.40
25.14,4.42
25.39,4.45
25.65,4.48
25.91,4.50
26.16,4.53
26.43,4.55
26.69,4.57
26.96,4.59
27.23,4.61
27.50,4.62
27.77,4.64
28.05,4.66
28.33,4.67
28.62,4.69
28.90,4.71
29.19,4.72
29.48,4.74
29.78,4.75
30.08,4.77
30.38,4.78
30.68,4.79
30.99,4.80
31.30,4.81
31.61,4.82
31.93,4.82
32.24,4.83
32.57,4.83
32.89,4.83
33.22,4.84
33.55,4.84
33.89,4.84
34.23,4.85
34.57,4.85
34.92,4.85
35.27,4.85
35.62,4.84
35.97,4.84
36.33,4.84
36.70,4.84
37.06,4.83
37.43,4.83
37.81,4.83
38.19,4.82
38.57,4.81
38.95,4.81
39.34,4.79
39.74,4.78
40.14,4.77
40.54,4.76
40.94,4.75
41.35,4.74
41.76,4.72
42.18,4.70
42.60,4.69
43.03,4.67
43.46,4.65
43.90,4.63
44.33,4.61
44.78,4.59
45.23,4.58
45.68,4.55
46.13,4.53
46.60,4.50
47.06,4.47
47.53,4.44
48.01,4.42
48.49,4.40
48.97,4.38
49.46,4.36
49.96,4.35
50.46,4.33
50.96,4.31
51.47,4.30
51.99,4.27
52.51,4.24
53.03,4.22
53.56,4.19
54.10,4.15
54.64,4.12
55.18,4.09
55.74,4.06
56.29,4.03
56.86,4.00
57.42,3.97
58.00,3.94
58.58,3.91
59.16,3.88
59.76,3.85
60.35,3.82
60.96,3.78
61.57,3.74
62.18,3.70
62.80,3.66
63.43,3.62
64.07,3.58
64.71,3.54
65.35,3.50
66.01,3.47
66.67,3.43
67.33,3.39
68.01,3.35
68.69,3.31
69.37,3.27
70.07,3.23
70.77,3.18
71.48,3.14
72.19,3.10
72.91,3.06
73.64,3.02
74.38,2.97
75.12,2.93
75.87,2.89
76.63,2.84
77.40,2.80
78.17,2.76
78.95,2.72
79.74,2.67
80.54,2.64
81.35,2.60
82.16,2.57
82.98,2.53
83.81,2.49
84.65,2.44
85.50,2.39
86.35,2.33
87.22,2.26
88.09,2.21
88.97,2.15
89.86,2.09
90.76,2.05
91.66,2.00
92.58,1.95
93.51,1.91
94.44,1.86
95.39,1.82
96.34,1.77
97.30,1.72
98.28,1.67
99.26,1.62
100.25,1.57
101.25,1.52
102.27,1.46
103.29,1.41
104.32,1.37
105.37,1.32
106.42,1.27
107.48,1.22
108.56,1.17
109.64,1.12
110.74,1.07
111.85,1.02
112.97,0.97
114.10,0.92
115.24,0.87
116.39,0.82
117.55,0.77
118.73,0.72
119.92,0.67
121.12,0.62
122.33,0.58
123.55,0.52
124.79,0.47
126.03,0.42
127.29,0.38
128.57,0.33
129.85,0.28
131.15,0.24
132.46,0.19
133.79,0.14
135.12,0.09
136.48,0.04
137.84,-0.01
139.22,-0.07
140.61,-0.12
142.02,-0.17
143.44,-0.22
144.87,-0.27
146.32,-0.33
147.78,-0.38
149.26,-0.43
150.75,-0.47
152.26,-0.52
153.78,-0.56
155.32,-0.61
156.88,-0.64
158.44,-0.68
160.03,-0.71
161.63,-0.74
163.24,-0.77
164.88,-0.80
166.53,-0.82
168.19,-0.85
169.87,-0.88
171.57,-0.92
173.29,-0.95
175.02,-0.99
176.77,-1.03
178.54,-1.08
180.32,-1.12
182.13,-1.15
183.95,-1.18
185.79,-1.22
187.65,-1.25
189.52,-1.29
191.42,-1.33
193.33,-1.36
195.27,-1.40
197.22,-1.44
199.19,-1.48
201.18,-1.52
203.19,-1.56
205.23,-1.59
207.28,-1.63
209.35,-1.66
211.44,-1.70
213.56,-1.73
215.69,-1.77
217.85,-1.80
220.03,-1.84
222.23,-1.87
224.45,-1.90
226.70,-1.93
228.96,-1.96
231.25,-1.99
233.57,-2.03
235.90,-2.06
238.26,-2.08
240.64,-2.11
243.05,-2.14
245.48,-2.17
247.93,-2.20
250.41,-2.22
252.92,-2.25
255.45,-2.27
258.00,-2.30
260.58,-2.32
263.19,-2.35
265.82,-2.37
268.48,-2.39
271.16,-2.41
273.87,-2.43
276.61,-2.45
279.38,-2.47
282.17,-2.49
284.99,-2.51
287.84,-2.53
290.72,-2.55
293.63,-2.56
296.57,-2.58
299.53,-2.59
302.53,-2.61
305.55,-2.62
308.61,-2.64
311.69,-2.65
314.81,-2.66
317.96,-2.67
321.14,-2.68
324.35,-2.69
327.59,-2.69
330.87,-2.70
334.18,-2.70
337.52,-2.70
340.90,-2.70
344.30,-2.70
347.75,-2.70
351.23,-2.70
354.74,-2.70
358.28,-2.70
361.87,-2.69
365.49,-2.69
369.14,-2.68
372.83,-2.68
376.56,-2.67
380.33,-2.67
384.13,-2.66
387.97,-2.65
391.85,-2.65
395.77,-2.64
399.73,-2.63
403.72,-2.62
407.76,-2.61
411.84,-2.60
415.96,-2.59
420.12,-2.58
424.32,-2.57
428.56,-2.56
432.85,-2.55
437.18,-2.54
441.55,-2.53
445.96,-2.52
450.42,-2.51
454.93,-2.50
459.48,-2.49
464.07,-2.48
468.71,-2.47
473.40,-2.47
478.13,-2.45
482.91,-2.44
487.74,-2.43
492.62,-2.42
497.55,-2.40
502.52,-2.38
507.55,-2.36
512.62,-2.34
517.75,-2.32
522.93,-2.29
528.16,-2.26
533.44,-2.23
538.77,-2.19
544.16,-2.16
549.60,-2.12
555.10,-2.08
560.65,-2.03
566.25,-1.99
571.92,-1.94
577.64,-1.89
583.41,-1.84
589.25,-1.79
595.14,-1.75
601.09,-1.70
607.10,-1.65
613.17,-1.60
619.30,-1.56
625.50,-1.52
631.75,-1.48
638.07,-1.44
644.45,-1.40
650.89,-1.36
657.40,-1.32
663.98,-1.29
670.62,-1.25
677.32,-1.22
684.10,-1.18
690.94,-1.15
697.85,-1.11
704.83,-1.08
711.87,-1.04
718.99,-1.00
726.18,-0.96
733.44,-0.92
740.78,-0.88
748.19,-0.85
755.67,-0.82
763.23,-0.80
770.86,-0.78
778.57,-0.76
786.35,-0.74
794.22,-0.72
802.16,-0.70
810.18,-0.68
818.28,-0.66
826.46,-0.63
834.73,-0.61
843.08,-0.58
851.51,-0.56
860.02,-0.53
868.62,-0.50
877.31,-0.47
886.08,-0.44
894.94,-0.41
903.89,-0.38
912.93,-0.35
922.06,-0.31
931.28,-0.28
940.59,-0.24
950.00,-0.21
959.50,-0.17
969.09,-0.13
978.78,-0.09
988.57,-0.05
998.46,-0.01
1008.44,0.04
1018.53,0.08
1028.71,0.12
1039.00,0.16
1049.39,0.21
1059.88,0.25
1070.48,0.29
1081.19,0.34
1092.00,0.38
1102.92,0.42
1113.95,0.46
1125.09,0.50
1136.34,0.54
1147.70,0.59
1159.18,0.62
1170.77,0.66
1182.48,0.70
1194.30,0.74
1206.25,0.78
1218.31,0.81
1230.49,0.84
1242.80,0.88
1255.22,0.91
1267.78,0.94
1280.45,0.97
1293.26,0.99
1306.19,1.02
1319.25,1.05
1332.45,1.07
1345.77,1.10
1359.23,1.12
1372.82,1.14
1386.55,1.17
1400.41,1.19
1414.42,1.21
1428.56,1.23
1442.85,1.26
1457.28,1.28
1471.85,1.30
1486.57,1.32
1501.43,1.34
1516.45,1.36
1531.61,1.38
1546.93,1.41
1562.40,1.43
1578.02,1.45
1593.80,1.48
1609.74,1.50
1625.84,1.53
1642.10,1.55
1658.52,1.58
1675.10,1.60
1691.85,1.63
1708.77,1.66
1725.86,1.69
1743.12,1.72
1760.55,1.75
1778.15,1.78
1795.94,1.82
1813.90,1.85
1832.03,1.88
1850.36,1.92
1868.86,1.96
1887.55,1.99
1906.42,2.03
1925.49,2.07
1944.74,2.10
1964.19,2.14
1983.83,2.18
2003.67,2.22
2023.71,2.26
2043.94,2.29
2064.38,2.33
2085.03,2.37
2105.88,2.41
2126.94,2.44
2148.20,2.48
2169.69,2.52
2191.38,2.56
2213.30,2.59
2235.43,2.63
2257.78,2.67
2280.36,2.71
2303.17,2.75
2326.20,2.79
2349.46,2.82
2372.95,2.85
2396.68,2.88
2420.65,2.91
2444.86,2.94
2469.31,2.96
2494.00,2.98
2518.94,2.99
2544.13,3.00
2569.57,3.01
2595.27,3.01
2621.22,3.01
2647.43,3.01
2673.90,3.00
2700.64,2.98
2727.65,2.97
2754.93,2.94
2782.48,2.92
2810.30,2.89
2838.40,2.85
2866.79,2.81
2895.46,2.76
2924.41,2.71
2953.65,2.65
2983.19,2.59
3013.02,2.53
3043.15,2.46
3073.58,2.39
3104.32,2.31
3135.36,2.23
3166.72,2.14
3198.38,2.05
3230.37,1.96
3262.67,1.87
3295.30,1.78
3328.25,1.69
3361.53,1.60
3395.15,1.50
3429.10,1.40
3463.39,1.31
3498.03,1.21
3533.01,1.11
3568.34,1.01
3604.02,0.91
3640.06,0.82
3676.46,0.74
3713.22,0.66
3750.36,0.58
3787.86,0.52
3825.74,0.46
3864.00,0.41
3902.64,0.38
3941.66,0.35
3981.08,0.32
4020.89,0.31
4061.10,0.30
4101.71,0.30
4142.73,0.32
4184.15,0.36
4226.00,0.41
4268.26,0.48
4310.94,0.60
4354.05,0.71
4397.59,0.88
4441.56,1.08
4485.98,1.27
4530.84,1.52
4576.15,1.79
4621.91,2.06
4668.13,2.34
4714.81,2.61
4761.96,2.87
4809.58,3.06
4857.67,3.25
4906.25,3.34
4955.31,3.40
5004.87,3.45
5054.91,3.43
5105.46,3.41
5156.52,3.38
5208.08,3.36
5260.16,3.33
5312.77,3.32
5365.89,3.32
5419.55,3.33
5473.75,3.33
5528.49,3.35
5583.77,3.37
5639.61,3.38
5696.00,3.38
5752.96,3.39
5810.49,3.39
5868.60,3.37
5927.28,3.36
5986.56,3.34
6046.42,3.32
6106.89,3.30
6167.96,3.28
6229.64,3.27
6291.93,3.26
6354.85,3.28
6418.40,3.29
6482.58,3.31
6547.41,3.35
6612.88,3.41
6679.01,3.46
6745.80,3.54
6813.26,3.64
6881.39,3.73
6950.21,3.85
7019.71,3.98
7089.91,4.10
7160.81,4.24
7232.41,4.38
7304.74,4.51
7377.79,4.65
7451.56,4.78
7526.08,4.90
7601.34,4.99
7677.35,5.08
7754.13,5.16
7831.67,5.13
7909.98,5.09
7989.08,5.05
8068.98,4.88
8149.67,4.68
8231.16,4.49
8313.47,4.21
8396.61,3.90
8480.57,3.59
8565.38,3.25
8651.03,2.90
8737.54,2.56
8824.92,2.24
8913.17,1.92
9002.30,1.61
9092.32,1.37
9183.25,1.13
9275.08,0.91
9367.83,0.76
9461.51,0.60
9556.12,0.48
9651.68,0.39
9748.20,0.29
9845.68,0.23
9944.14,0.17
10043.58,0.12
10144.02,0.07
10245.46,0.02
10347.91,-0.03
10451.39,-0.09
10555.91,-0.14
10661.46,-0.21
10768.08,-0.29
10875.76,-0.36
10984.52,-0.47
11094.36,-0.58
11205.31,-0.70
11317.36,-0.87
11430.53,-1.05
11544.84,-1.25
11660.29,-1.51
11776.89,-1.76
11894.66,-2.06
12013.60,-2.36
12133.74,-2.67
12255.08,-2.96
12377.63,-3.25
12501.41,-3.53
12626.42,-3.77
12752.68,-4.01
12880.21,-4.21
13009.01,-4.39
13139.10,-4.56
13270.49,-4.68
13403.20,-4.73
13537.23,-4.79
13672.60,-4.74
13809.33,-4.60
13947.42,-4.46
14086.90,-4.18
14227.77,-3.82
14370.04,-3.45
14513.74,-3.09
14658.88,-2.77
14805.47,-2.44
14953.52,-2.12
15103.06,-2.15
15254.09,-2.34
15406.63,-2.53
15560.70,-2.94
15716.30,-3.68
15873.47,-4.43
16032.20,-5.21
16192.52,-6.13
16354.45,-7.04
16517.99,-7.95
16683.17,-8.76
16850.01,-9.56
17018.51,-10.34
17188.69,-10.96
17360.58,-11.57
17534.18,-12.15
17709.53,-12.59
17886.62,-13.03
18065.49,-13.44
18246.14,-13.80
18428.60,-14.16
18612.89,-14.58
18799.02,-15.04
18987.01,-15.50
19176.88,-15.95
19368.65,-16.39
19562.33,-16.74
19757.96,-16.89
19955.54,-17.04
