frequency,raw
20.00,4.62
20.20,4.66
20.40,4.71
20.61,4.75
20.81,4.80
21.02,4.84
21.23,4.89
21.44,4.93
21.66,4.97
21.87,5.01
22.09,5.05
22.31,5.09
22.54,5.13
22.76,5.16
22.99,5.19
23.22,5.22
23.45,5.25
23.69,5.28
23.92,5.31
24.16,5.34
24.40,5.36
24.65,5.39
24.89,5.42
25.14,5.44
25.39,5.47
25.65,5.49
25.91,5.52
26.16,5.54
26.43,5.56
26.69,5.58
26.96,5.60
27.23,5.62
27.50,5.64
27.77,5.66
28.05,5.67
28.33,5.69
28.62,5.70
28.90,5.71
29.19,5.73
29.48,5.74
29.78,5.75
30.08,5.76
30.38,5.77
30.68,5.78
30.99,5.79
31.30,5.80
31.61,5.80
31.93,5.81
32.24,5.81
32.57,5.82
32.89,5.82
33.22,5.83
33.55,5.83
33.89,5.83
34.23,5.83
34.57,5.83
34.92,5.83
35.27,5.83
35.62,5.83
35.97,5.83
36.33,5.83
36.70,5.82
37.06,5.81
37.43,5.81
37.81,5.80
38.19,5.79
38.57,5.78
38.95,5.77
39.34,5.76
39.74,5.75
40.14,5.73
40.54,5.72
40.94,5.71
41.35,5.70
41.76,5.69
42.18,5.67
42.60,5.66
43.03,5.64
43.46,5.62
43.90,5.61
44.33,5.59
44.78,5.57
45.23,5.55
45.68,5.53
46.13,5.51
46.60,5.49
47.06,5.46
47.53,5.44
48.01,5.42
48.49,5.39
48.97,5.37
49.46,5.34
49.96,5.32
50.46,5.29
50.96,5.27
51.47,5.24
51.99,5.21
52.51,5.18
53.03,5.16
53.56,5.13
54.10,5.10
54.64,5.07
55.18,5.04
55.74,5.01
56.29,4.97
56.86,4.94
57.42,4.91
58.00,4.87
58.58,4.83
59.16,4.80
59.76,4.76
60.35,4.73
60.96,4.69
61.57,4.65
62.18,4.62
62.80,4.58
63.43,4.55
64.07,4.51
64.71,4.48
65.35,4.44
66.01,4.40
66.67,4.36
67.33,4.32
68.01,4.28
68.69,4.24
69.37,4.20
70.07,4.16
70.77,4.12
71.48,4.08
72.19,4.04
72.91,4.00
73.64,3.95
74.38,3.91
75.12,3.86
75.87,3.82
76.63,3.77
77.40,3.73
78.17,3.68
78.95,3.64
79.74,3.60
80.54,3.55
81.35,3.51
82.16,3.47
82.98,3.42
83.81,3.38
84.65,3.33
85.50,3.28
86.35,3.23
87.22,3.18
88.09,3.13
88.97,3.08
89.86,3.04
90.76,2.99
91.66,2.94
92.58,2.89
93.51,2.84
94.44,2.79
95.39,2.74
96.34,2.70
97.30,2.65
98.28,2.60
99.26,2.55
100.25,2.50
101.25,2.45
102.27,2.40
103.29,2.35
104.32,2.30
105.37,2.25
106.42,2.20
107.48,2.15
108.56,2.10
109.64,2.06
110.74,2.01
111.85,1.96
112.97,1.91
114.10,1.86
115.24,1.81
116.39,1.76
117.55,1.71
118.73,1.66
119.92,1.61
121.12,1.56
122.33,1.51
123.55,1.46
124.79,1.41
126.03,1.36
127.29,1.32
128.57,1.27
129.85,1.22
131.15,1.17
132.46,1.12
133.79,1.08
135.12,1.03
136.48,0.98
137.84,0.93
139.22,0.89
140.61,0.84
142.02,0.79
143.44,0.74
144.87,0.70
146.32,0.65
147.78,0.60
149.26,0.56
150.75,0.51
152.26,0.47
153.78,0.42
155.32,0.37
156.88,0.33
158.44,0.29
160.03,0.24
161.63,0.20
163.24,0.16
164.88,0.11
166.53,0.07
168.19,0.03
169.87,-0.01
171.57,-0.06
173.29,-0.10
175.02,-0.14
176.77,-0.18
178.54,-0.22
180.32,-0.26
182.13,-0.30
183.95,-0.34
185.79,-0.38
187.65,-0.42
189.52,-0.46
191.42,-0.49
193.33,-0.53
195.27,-0.57
197.22,-0.60
199.19,-0.64
201.18,-0.68
203.19,-0.71
205.23,-0.75
207.28,-0.78
209.35,-0.82
211.44,-0.85
213.56,-0.88
215.69,-0.91
217.85,-0.95
220.03,-0.98
222.23,-1.01
224.45,-1.04
226.70,-1.07
228.96,-1.10
231.25,-1.13
233.57,-1.15
235.90,-1.18
238.26,-1.20
240.64,-1.23
243.05,-1.25
245.48,-1.28
247.93,-1.30
250.41,-1.32
252.92,-1.34
255.45,-1.36
258.00,-1.37
260.58,-1.39
263.19,-1.41
265.82,-1.43
268.48,-1.45
271.16,-1.47
273.87,-1.48
276.61,-1.50
279.38,-1.52
282.17,-1.54
284.99,-1.55
287.84,-1.57
290.72,-1.59
293.63,-1.60
296.57,-1.61
299.53,-1.63
302.53,-1.64
305.55,-1.65
308.61,-1.66
311.69,-1.67
314.81,-1.68
317.96,-1.69
321.14,-1.69
324.35,-1.70
327.59,-1.71
330.87,-1.71
334.18,-1.72
337.52,-1.72
340.90,-1.72
344.30,-1.73
347.75,-1.73
351.23,-1.73
354.74,-1.74
358.28,-1.74
361.87,-1.74
365.49,-1.74
369.14,-1.74
372.83,-1.74
376.56,-1.74
380.33,-1.73
384.13,-1.73
387.97,-1.73
391.85,-1.72
395.77,-1.72
399.73,-1.71
403.72,-1.71
407.76,-1.70
411.84,-1.70
415.96,-1.69
420.12,-1.68
424.32,-1.67
428.56,-1.66
432.85,-1.65
437.18,-1.64
441.55,-1.63
445.96,-1.62
450.42,-1.61
454.93,-1.60
459.48,-1.59
464.07,-1.57
468.71,-1.56
473.40,-1.55
478.13,-1.53
482.91,-1.52
487.74,-1.51
492.62,-1.49
497.55,-1.48
502.52,-1.46
507.55,-1.44
512.62,-1.43
517.75,-1.41
522.93,-1.40
528.16,-1.38
533.44,-1.36
538.77,-1.35
544.16,-1.33
549.60,-1.31
555.10,-1.30
560.65,-1.28
566.25,-1.26
571.92,-1.25
577.64,-1.23
583.41,-1.21
589.25,-1.20
595.14,-1.18
601.09,-1.17
607.10,-1.15
613.17,-1.13
619.30,-1.12
625.50,-1.10
631.75,-1.09
638.07,-1.08
644.45,-1.06
650.89,-1.05
657.40,-1.04
663.98,-1.03
670.62,-1.02
677.32,-1.01
684.10,-1.00
690.94,-1.00
697.85,-0.99
704.83,-0.98
711.87,-0.97
718.99,-0.96
726.18,-0.95
733.44,-0.94
740.78,-0.92
748.19,-0.91
755.67,-0.89
763.23,-0.88
770.86,-0.87
778.57,-0.86
786.35,-0.85
794.22,-0.84
802.16,-0.83
810.18,-0.81
818.28,-0.80
826.46,-0.79
834.73,-0.77
843.08,-0.75
851.51,-0.72
860.02,-0.69
868.62,-0.66
877.31,-0.63
886.08,-0.59
894.94,-0.55
903.89,-0.51
912.93,-0.46
922.06,-0.41
931.28,-0.36
940.59,-0.31
950.00,-0.26
959.50,-0.21
969.09,-0.16
978.78,-0.11
988.57,-0.06
998.46,-0.01
1008.44,0.04
1018.53,0.10
1028.71,0.15
1039.00,0.21
1049.39,0.27
1059.88,0.34
1070.48,0.41
1081.19,0.49
1092.00,0.57
1102.92,0.65
1113.95,0.74
1125.09,0.82
1136.34,0.91
1147.70,1.00
1159.18,1.07
1170.77,1.15
1182.48,1.22
1194.30,1.28
1206.25,1.35
1218.31,1.41
1230.49,1.46
1242.80,1.52
1255.22,1.57
1267.78,1.61
1280.45,1.66
1293.26,1.70
1306.19,1.74
1319.25,1.78
1332.45,1.82
1345.77,1.86
1359.23,1.89
1372.82,1.93
1386.55,1.96
1400.41,2.00
1414.42,2.03
1428.56,2.07
1442.85,2.10
1457.28,2.13
1471.85,2.17
1486.57,2.20
1501.43,2.23
1516.45,2.27
1531.61,2.30
1546.93,2.34
1562.40,2.37
1578.02,2.41
1593.80,2.45
1609.74,2.49
1625.84,2.52
1642.10,2.56
1658.52,2.60
1675.10,2.65
1691.85,2.69
1708.77,2.73
1725.86,2.77
1743.12,2.82
1760.55,2.87
1778.15,2.91
1795.94,2.96
1813.90,3.01
1832.03,3.06
1850.36,3.11
1868.86,3.17
1887.55,3.22
1906.42,3.28
1925.49,3.34
1944.74,3.40
1964.19,3.46
1983.83,3.52
2003.67,3.58
2023.71,3.64
2043.94,3.70
2064.38,3.76
2085.03,3.83
2105.88,3.89
2126.94,3.96
2148.20,4.02
2169.69,4.09
2191.38,4.16
2213.30,4.23
2235.43,4.30
2257.78,4.38
2280.36,4.46
2303.17,4.54
2326.20,4.62
2349.46,4.69
2372.95,4.77
2396.68,4.84
2420.65,4.90
2444.86,4.96
2469.31,5.00
2494.00,5.05
2518.94,5.07
2544.13,5.09
2569.57,5.11
2595.27,5.11
2621.22,5.11
2647.43,5.10
2673.90,5.07
2700.64,5.04
2727.65,5.01
2754.93,4.96
2782.48,4.90
2810.30,4.84
2838.40,4.77
2866.79,4.69
2895.46,4.61
2924.41,4.52
2953.65,4.42
2983.19,4.33
3013.02,4.23
3043.15,4.12
3073.58,4.02
3104.32,3.91
3135.36,3.80
3166.72,3.70
3198.38,3.59
3230.37,3.49
3262.67,3.39
3295.30,3.29
3328.25,3.20
3361.53,3.10
3395.15,3.01
3429.10,2.93
3463.39,2.84
3498.03,2.77
3533.01,2.69
3568.34,2.62
3604.02,2.55
3640.06,2.49
3676.46,2.43
3713.22,2.37
3750.36,2.32
3787.86,2.28
3825.74,2.23
3864.00,2.19
3902.64,2.16
3941.66,2.13
3981.08,2.10
4020.89,2.08
4061.10,2.07
4101.71,2.06
4142.73,2.05
4184.15,2.05
4226.00,2.05
4268.26,2.08
4310.94,2.17
4354.05,2.25
4397.59,2.38
4441.56,2.55
4485.98,2.71
4530.84,2.86
4576.15,2.99
4621.91,3.12
4668.13,3.15
4714.81,3.17
4761.96,3.18
4809.58,3.13
4857.67,3.07
4906.25,3.04
4955.31,3.00
5004.87,2.98
5054.91,3.04
5105.46,3.11
5156.52,3.18
5208.08,3.35
5260.16,3.52
5312.77,3.70
5365.89,3.92
5419.55,4.14
5473.75,4.37
5528.49,4.59
5583.77,4.81
5639.61,4.98
5696.00,5.13
5752.96,5.28
5810.49,5.41
5868.60,5.42
5927.28,5.44
5986.56,5.45
6046.42,5.37
6106.89,5.27
6167.96,5.15
6229.64,4.99
6291.93,4.82
6354.85,4.64
6418.40,4.46
6482.58,4.27
6547.41,4.11
6612.88,3.96
6679.01,3.80
6745.80,3.69
6813.26,3.60
6881.39,3.51
6950.21,3.46
7019.71,3.44
7089.91,3.42
7160.81,3.44
7232.41,3.46
7304.74,3.49
7377.79,3.52
7451.56,3.56
7526.08,3.56
7601.34,3.52
7677.35,3.47
7754.13,3.42
7831.67,3.20
7909.98,2.99
7989.08,2.77
8068.98,2.39
8149.67,2.00
8231.16,1.60
8313.47,1.14
8396.61,0.67
8480.57,0.20
8565.38,-0.20
8651.03,-0.57
8737.54,-0.94
8824.92,-1.16
8913.17,-1.34
9002.30,-1.52
9092.32,-1.59
9183.25,-1.66
9275.08,-1.74
9367.83,-1.84
9461.51,-1.94
9556.12,-2.10
9651.68,-2.30
9748.20,-2.50
9845.68,-2.72
9944.14,-2.95
10043.58,-3.15
10144.02,-3.31
10245.46,-3.47
10347.91,-3.58
10451.39,-3.64
10555.91,-3.69
10661.46,-3.68
10768.08,-3.63
10875.76,-3.58
10984.52,-3.49
11094.36,-3.40
11205.31,-3.30
11317.36,-3.26
11430.53,-3.21
11544.84,-3.22
11660.29,-3.32
11776.89,-3.41
11894.66,-3.67
12013.60,-3.97
12133.74,-4.26
12255.08,-4.62
12377.63,-5.05
12501.41,-5.48
12626.42,-5.93
12752.68,-6.37
12880.21,-6.77
13009.01,-7.14
13139.10,-7.51
13270.49,-7.79
13403.20,-8.01
13537.23,-8.22
13672.60,-8.34
13809.33,-8.37
13947.42,-8.40
14086.90,-8.31
14227.77,-8.15
14370.04,-7.99
14513.74,-7.82
14658.88,-7.58
14805.47,-7.34
14953.52,-7.09
15103.06,-6.97
15254.09,-6.89
15406.63,-6.81
15560.70,-6.86
15716.30,-7.10
15873.47,-7.34
16032.20,-7.62
16192.52,-8.09
16354.45,-8.56
16517.99,-9.04
16683.17,-9.64
16850.01,-10.23
17018.51,-10.84
17188.69,-11.53
17360.58,-12.23
17534.18,-12.91
17709.53,-13.51
17886.62,-14.12
18065.49,-14.72
18246.14,-15.33
18428.60,-15.93
18612.89,-16.43
18799.02,-16.86
18987.01,-17.30
19176.88,-17.41
19368.65,-17.49
19562.33,-17.54
19757.96,-17.48
19955.54,-17.43
