frequency,raw
20.00,7.16
20.20,7.20
20.40,7.23
20.61,7.27
20.81,7.30
21.02,7.33
21.23,7.37
21.44,7.41
21.66,7.44
21.87,7.48
22.09,7.51
22.31,7.54
22.54,7.58
22.76,7.61
22.99,7.63
23.22,7.66
23.45,7.69
23.69,7.72
23.92,7.75
24.16,7.78
24.40,7.81
24.65,7.84
24.89,7.86
25.14,7.89
25.39,7.91
25.65,7.94
25.91,7.96
26.16,7.99
26.43,8.01
26.69,8.03
26.96,8.05
27.23,8.07
27.50,8.09
27.77,8.11
28.05,8.13
28.33,8.15
28.62,8.16
28.90,8.18
29.19,8.20
29.48,8.21
29.78,8.23
30.08,8.24
30.38,8.26
30.68,8.27
30.99,8.28
31.30,8.30
31.61,8.31
31.93,8.32
32.24,8.33
32.57,8.34
32.89,8.35
33.22,8.36
33.55,8.37
33.89,8.37
34.23,8.38
34.57,8.39
34.92,8.39
35.27,8.40
35.62,8.40
35.97,8.41
36.33,8.41
36.70,8.41
37.06,8.41
37.43,8.42
37.81,8.42
38.19,8.42
38.57,8.42
38.95,8.42
39.34,8.42
39.74,8.42
40.14,8.41
40.54,8.41
40.94,8.40
41.35,8.40
41.76,8.39
42.18,8.38
42.60,8.38
43.03,8.37
43.46,8.37
43.90,8.36
44.33,8.35
44.78,8.35
45.23,8.34
45.68,8.33
46.13,8.33
46.60,8.32
47.06,8.31
47.53,8.30
48.01,8.28
48.49,8.27
48.97,8.26
49.46,8.24
49.96,8.23
50.46,8.21
50.96,8.20
51.47,8.18
51.99,8.17
52.51,8.15
53.03,8.13
53.56,8.11
54.10,8.08
54.64,8.05
55.18,8.02
55.74,7.99
56.29,7.96
56.86,7.94
57.42,7.92
58.00,7.90
58.58,7.87
59.16,7.85
59.76,7.82
60.35,7.79
60.96,7.77
61.57,7.74
62.18,7.72
62.80,7.71
63.43,7.68
64.07,7.66
64.71,7.63
65.35,7.60
66.01,7.56
66.67,7.53
67.33,7.49
68.01,7.45
68.69,7.41
69.37,7.38
70.07,7.34
70.77,7.31
71.48,7.27
72.19,7.24
72.91,7.21
73.64,7.17
74.38,7.13
75.12,7.09
75.87,7.04
76.63,6.99
77.40,6.94
78.17,6.90
78.95,6.86
79.74,6.81
80.54,6.77
81.35,6.73
82.16,6.68
82.98,6.64
83.81,6.59
84.65,6.55
85.50,6.50
86.35,6.45
87.22,6.40
88.09,6.35
88.97,6.30
89.86,6.25
90.76,6.20
91.66,6.15
92.58,6.10
93.51,6.05
94.44,6.00
95.39,5.95
96.34,5.89
97.30,5.84
98.28,5.78
99.26,5.73
100.25,5.67
101.25,5.62
102.27,5.56
103.29,5.50
104.32,5.45
105.37,5.39
106.42,5.33
107.48,5.27
108.56,5.21
109.64,5.15
110.74,5.09
111.85,5.04
112.97,4.97
114.10,4.91
115.24,4.85
116.39,4.79
117.55,4.73
118.73,4.68
119.92,4.62
121.12,4.56
122.33,4.50
123.55,4.43
124.79,4.37
126.03,4.30
127.29,4.24
128.57,4.18
129.85,4.12
131.15,4.06
132.46,4.00
133.79,3.93
135.12,3.87
136.48,3.81
137.84,3.74
139.22,3.68
140.61,3.62
142.02,3.56
143.44,3.50
144.87,3.43
146.32,3.37
147.78,3.31
149.26,3.25
150.75,3.19
152.26,3.13
153.78,3.07
155.32,3.01
156.88,2.95
158.44,2.89
160.03,2.83
161.63,2.78
163.24,2.72
164.88,2.66
166.53,2.60
168.19,2.55
169.87,2.49
171.57,2.44
173.29,2.38
175.02,2.32
176.77,2.27
178.54,2.22
180.32,2.17
182.13,2.12
183.95,2.08
185.79,2.04
187.65,2.00
189.52,1.96
191.42,1.92
193.33,1.89
195.27,1.86
197.22,1.83
199.19,1.79
201.18,1.76
203.19,1.73
205.23,1.70
207.28,1.66
209.35,1.63
211.44,1.60
213.56,1.57
215.69,1.54
217.85,1.51
220.03,1.48
222.23,1.45
224.45,1.43
226.70,1.40
228.96,1.38
231.25,1.36
233.57,1.33
235.90,1.31
238.26,1.29
240.64,1.26
243.05,1.24
245.48,1.22
247.93,1.19
250.41,1.17
252.92,1.15
255.45,1.12
258.00,1.10
260.58,1.08
263.19,1.06
265.82,1.04
268.48,1.03
271.16,1.01
273.87,0.99
276.61,0.98
279.38,0.96
282.17,0.95
284.99,0.93
287.84,0.92
290.72,0.91
293.63,0.89
296.57,0.88
299.53,0.87
302.53,0.85
305.55,0.84
308.61,0.83
311.69,0.82
314.81,0.80
317.96,0.79
321.14,0.78
324.35,0.77
327.59,0.76
330.87,0.75
334.18,0.73
337.52,0.72
340.90,0.71
344.30,0.70
347.75,0.69
351.23,0.68
354.74,0.67
358.28,0.66
361.87,0.65
365.49,0.64
369.14,0.63
372.83,0.61
376.56,0.60
380.33,0.59
384.13,0.58
387.97,0.57
391.85,0.56
395.77,0.54
399.73,0.53
403.72,0.52
407.76,0.51
411.84,0.49
415.96,0.48
420.12,0.47
424.32,0.46
428.56,0.44
432.85,0.43
437.18,0.42
441.55,0.40
445.96,0.39
450.42,0.38
454.93,0.36
459.48,0.35
464.07,0.34
468.71,0.32
473.40,0.31
478.13,0.29
482.91,0.28
487.74,0.26
492.62,0.25
497.55,0.23
502.52,0.22
507.55,0.20
512.62,0.18
517.75,0.17
522.93,0.15
528.16,0.13
533.44,0.12
538.77,0.10
544.16,0.08
549.60,0.07
555.10,0.05
560.65,0.03
566.25,0.01
571.92,-0.01
577.64,-0.03
583.41,-0.04
589.25,-0.06
595.14,-0.08
601.09,-0.10
607.10,-0.12
613.17,-0.14
619.30,-0.16
625.50,-0.18
631.75,-0.20
638.07,-0.22
644.45,-0.24
650.89,-0.26
657.40,-0.28
663.98,-0.29
670.62,-0.31
677.32,-0.33
684.10,-0.35
690.94,-0.36
697.85,-0.38
704.83,-0.39
711.87,-0.41
718.99,-0.42
726.18,-0.43
733.44,-0.44
740.78,-0.45
748.19,-0.46
755.67,-0.47
763.23,-0.48
770.86,-0.48
778.57,-0.49
786.35,-0.49
794.22,-0.49
802.16,-0.49
810.18,-0.49
818.28,-0.49
826.46,-0.49
834.73,-0.48
843.08,-0.48
851.51,-0.48
860.02,-0.47
868.62,-0.46
877.31,-0.45
886.08,-0.44
894.94,-0.42
903.89,-0.40
912.93,-0.38
922.06,-0.35
931.28,-0.32
940.59,-0.28
950.00,-0.24
959.50,-0.20
969.09,-0.15
978.78,-0.11
988.57,-0.06
998.46,-0.01
1008.44,0.04
1018.53,0.10
1028.71,0.15
1039.00,0.21
1049.39,0.27
1059.88,0.32
1070.48,0.38
1081.19,0.44
1092.00,0.50
1102.92,0.56
1113.95,0.62
1125.09,0.69
1136.34,0.75
1147.70,0.81
1159.18,0.87
1170.77,0.93
1182.48,1.00
1194.30,1.06
1206.25,1.12
1218.31,1.18
1230.49,1.24
1242.80,1.30
1255.22,1.37
1267.78,1.43
1280.45,1.49
1293.26,1.55
1306.19,1.61
1319.25,1.68
1332.45,1.74
1345.77,1.81
1359.23,1.87
1372.82,1.94
1386.55,2.01
1400.41,2.08
1414.42,2.16
1428.56,2.23
1442.85,2.31
1457.28,2.39
1471.85,2.47
1486.57,2.55
1501.43,2.64
1516.45,2.73
1531.61,2.82
1546.93,2.91
1562.40,3.01
1578.02,3.11
1593.80,3.21
1609.74,3.32
1625.84,3.43
1642.10,3.54
1658.52,3.66
1675.10,3.78
1691.85,3.90
1708.77,4.02
1725.86,4.15
1743.12,4.28
1760.55,4.41
1778.15,4.54
1795.94,4.67
1813.90,4.81
1832.03,4.95
1850.36,5.09
1868.86,5.22
1887.55,5.36
1906.42,5.50
1925.49,5.64
1944.74,5.77
1964.19,5.91
1983.83,6.04
2003.67,6.17
2023.71,6.30
2043.94,6.42
2064.38,6.55
2085.03,6.66
2105.88,6.78
2126.94,6.89
2148.20,7.00
2169.69,7.10
2191.38,7.20
2213.30,7.29
2235.43,7.38
2257.78,7.46
2280.36,7.53
2303.17,7.59
2326.20,7.64
2349.46,7.68
2372.95,7.71
2396.68,7.73
2420.65,7.75
2444.86,7.75
2469.31,7.75
2494.00,7.74
2518.94,7.72
2544.13,7.70
2569.57,7.68
2595.27,7.64
2621.22,7.61
2647.43,7.57
2673.90,7.53
2700.64,7.49
2727.65,7.44
2754.93,7.39
2782.48,7.33
2810.30,7.27
2838.40,7.19
2866.79,7.12
2895.46,7.04
2924.41,6.96
2953.65,6.87
2983.19,6.78
3013.02,6.70
3043.15,6.61
3073.58,6.53
3104.32,6.44
3135.36,6.36
3166.72,6.29
3198.38,6.22
3230.37,6.15
3262.67,6.09
3295.30,6.03
3328.25,5.98
3361.53,5.93
3395.15,5.90
3429.10,5.87
3463.39,5.84
3498.03,5.83
3533.01,5.82
3568.34,5.82
3604.02,5.82
3640.06,5.82
3676.46,5.82
3713.22,5.82
3750.36,5.82
3787.86,5.82
3825.74,5.83
3864.00,5.83
3902.64,5.84
3941.66,5.85
3981.08,5.86
4020.89,5.88
4061.10,5.89
4101.71,5.91
4142.73,5.92
4184.15,5.94
4226.00,5.95
4268.26,5.95
4310.94,5.95
4354.05,5.95
4397.59,5.94
4441.56,5.93
4485.98,5.91
4530.84,5.88
4576.15,5.85
4621.91,5.81
4668.13,5.76
4714.81,5.70
4761.96,5.64
4809.58,5.56
4857.67,5.48
4906.25,5.38
4955.31,5.27
5004.87,5.15
5054.91,5.00
5105.46,4.84
5156.52,4.68
5208.08,4.47
5260.16,4.27
5312.77,4.05
5365.89,3.80
5419.55,3.56
5473.75,3.30
5528.49,3.04
5583.77,2.78
5639.61,2.54
5696.00,2.31
5752.96,2.07
5810.49,1.86
5868.60,1.70
5927.28,1.55
5986.56,1.39
6046.42,1.32
6106.89,1.27
6167.96,1.25
6229.64,1.31
6291.93,1.38
6354.85,1.56
6418.40,1.76
6482.58,1.96
6547.41,2.26
6612.88,2.59
6679.01,2.93
6745.80,3.30
6813.26,3.68
6881.39,4.07
6950.21,4.39
7019.71,4.69
7089.91,4.99
7160.81,5.14
7232.41,5.27
7304.74,5.39
7377.79,5.36
7451.56,5.34
7526.08,5.29
7601.34,5.21
7677.35,5.12
7754.13,5.04
7831.67,5.03
7909.98,5.01
7989.08,5.00
8068.98,5.07
8149.67,5.16
8231.16,5.25
8313.47,5.34
8396.61,5.44
8480.57,5.53
8565.38,5.51
8651.03,5.45
8737.54,5.39
8824.92,5.11
8913.17,4.79
9002.30,4.46
9092.32,3.91
9183.25,3.36
9275.08,2.79
9367.83,2.16
9461.51,1.53
9556.12,0.94
9651.68,0.37
9748.20,-0.19
9845.68,-0.65
9944.14,-1.11
10043.58,-1.51
10144.02,-1.85
10245.46,-2.19
10347.91,-2.47
10451.39,-2.69
10555.91,-2.92
10661.46,-3.06
10768.08,-3.13
10875.76,-3.21
10984.52,-3.18
11094.36,-3.11
11205.31,-3.04
11317.36,-2.90
11430.53,-2.76
11544.84,-2.62
11660.29,-2.48
11776.89,-2.33
11894.66,-2.17
12013.60,-2.01
12133.74,-1.86
12255.08,-1.67
12377.63,-1.44
12501.41,-1.22
12626.42,-0.96
12752.68,-0.71
12880.21,-0.51
13009.01,-0.36
13139.10,-0.20
13270.49,-0.18
13403.20,-0.26
13537.23,-0.34
13672.60,-0.51
13809.33,-0.74
13947.42,-0.97
14086.90,-1.14
14227.77,-1.28
14370.04,-1.41
14513.74,-1.52
14658.88,-1.44
14805.47,-1.35
14953.52,-1.27
15103.06,-1.24
15254.09,-1.24
15406.63,-1.23
15560.70,-1.41
15716.30,-1.86
15873.47,-2.31
16032.20,-2.83
16192.52,-3.65
16354.45,-4.47
16517.99,-5.29
16683.17,-6.13
16850.01,-6.97
17018.51,-7.79
17188.69,-8.41
17360.58,-9.04
17534.18,-9.59
17709.53,-9.86
17886.62,-10.14
18065.49,-10.33
18246.14,-10.39
18428.60,-10.45
18612.89,-10.54
18799.02,-10.64
18987.01,-10.75
19176.88,-11.13
19368.65,-11.53
19562.33,-11.97
19757.96,-12.47
19955.54,-12.98
