frequency,raw
20.00,4.93
20.20,4.97
20.40,5.01
20.61,5.05
20.81,5.09
21.02,5.13
21.23,5.17
21.44,5.21
21.66,5.25
21.87,5.30
22.09,5.34
22.31,5.38
22.54,5.42
22.76,5.46
22.99,5.50
23.22,5.54
23.45,5.57
23.69,5.61
23.92,5.65
24.16,5.68
24.40,5.72
24.65,5.76
24.89,5.79
25.14,5.83
25.39,5.86
25.65,5.90
25.91,5.93
26.16,5.96
26.43,5.99
26.69,6.02
26.96,6.05
27.23,6.08
27.50,6.11
27.77,6.14
28.05,6.17
28.33,6.19
28.62,6.22
28.90,6.24
29.19,6.27
29.48,6.29
29.78,6.32
30.08,6.34
30.38,6.36
30.68,6.39
30.99,6.41
31.30,6.43
31.61,6.45
31.93,6.47
32.24,6.49
32.57,6.51
32.89,6.53
33.22,6.55
33.55,6.56
33.89,6.58
34.23,6.60
34.57,6.61
34.92,6.63
35.27,6.65
35.62,6.66
35.97,6.67
36.33,6.69
36.70,6.70
37.06,6.71
37.43,6.72
37.81,6.73
38.19,6.74
38.57,6.75
38.95,6.76
39.34,6.77
39.74,6.78
40.14,6.79
40.54,6.79
40.94,6.80
41.35,6.81
41.76,6.81
42.18,6.82
42.60,6.82
43.03,6.83
43.46,6.83
43.90,6.83
44.33,6.84
44.78,6.84
45.23,6.84
45.68,6.84
46.13,6.84
46.60,6.84
47.06,6.84
47.53,6.84
48.01,6.84
48.49,6.84
48.97,6.83
49.46,6.83
49.96,6.83
50.46,6.82
50.96,6.82
51.47,6.81
51.99,6.80
52.51,6.80
53.03,6.79
53.56,6.78
54.10,6.77
54.64,6.77
55.18,6.76
55.74,6.75
56.29,6.74
56.86,6.73
57.42,6.72
58.00,6.71
58.58,6.70
59.16,6.69
59.76,6.67
60.35,6.66
60.96,6.65
61.57,6.63
62.18,6.62
62.80,6.60
63.43,6.59
64.07,6.57
64.71,6.56
65.35,6.54
66.01,6.52
66.67,6.50
67.33,6.48
68.01,6.46
68.69,6.44
69.37,6.41
70.07,6.39
70.77,6.36
71.48,6.34
72.19,6.31
72.91,6.29
73.64,6.26
74.38,6.24
75.12,6.21
75.87,6.19
76.63,6.16
77.40,6.13
78.17,6.10
78.95,6.08
79.74,6.05
80.54,6.02
81.35,5.99
82.16,5.96
82.98,5.93
83.81,5.89
84.65,5.86
85.50,5.83
86.35,5.80
87.22,5.76
88.09,5.73
88.97,5.69
89.86,5.66
90.76,5.62
91.66,5.58
92.58,5.55
93.51,5.51
94.44,5.47
95.39,5.43
96.34,5.39
97.30,5.35
98.28,5.31
99.26,5.27
100.25,5.22
101.25,5.18
102.27,5.14
103.29,5.09
104.32,5.05
105.37,5.00
106.42,4.96
107.48,4.91
108.56,4.87
109.64,4.82
110.74,4.77
111.85,4.72
112.97,4.68
114.10,4.63
115.24,4.58
116.39,4.53
117.55,4.48
118.73,4.43
119.92,4.37
121.12,4.32
122.33,4.27
123.55,4.22
124.79,4.16
126.03,4.11
127.29,4.05
128.57,4.00
129.85,3.94
131.15,3.89
132.46,3.83
133.79,3.78
135.12,3.72
136.48,3.66
137.84,3.61
139.22,3.55
140.61,3.49
142.02,3.43
143.44,3.38
144.87,3.32
146.32,3.26
147.78,3.20
149.26,3.14
150.75,3.09
152.26,3.03
153.78,2.97
155.32,2.91
156.88,2.85
158.44,2.79
160.03,2.73
161.63,2.67
163.24,2.61
164.88,2.56
166.53,2.50
168.19,2.44
169.87,2.38
171.57,2.32
173.29,2.27
175.02,2.21
176.77,2.15
178.54,2.10
180.32,2.04
182.13,1.99
183.95,1.93
185.79,1.88
187.65,1.82
189.52,1.77
191.42,1.72
193.33,1.66
195.27,1.61
197.22,1.56
199.19,1.51
201.18,1.46
203.19,1.41
205.23,1.36
207.28,1.32
209.35,1.27
211.44,1.22
213.56,1.18
215.69,1.13
217.85,1.09
220.03,1.05
222.23,1.01
224.45,0.96
226.70,0.92
228.96,0.89
231.25,0.85
233.57,0.81
235.90,0.77
238.26,0.74
240.64,0.71
243.05,0.67
245.48,0.64
247.93,0.61
250.41,0.58
252.92,0.55
255.45,0.52
258.00,0.49
260.58,0.47
263.19,0.44
265.82,0.42
268.48,0.40
271.16,0.37
273.87,0.35
276.61,0.33
279.38,0.31
282.17,0.29
284.99,0.28
287.84,0.26
290.72,0.25
293.63,0.23
296.57,0.22
299.53,0.21
302.53,0.20
305.55,0.19
308.61,0.18
311.69,0.17
314.81,0.16
317.96,0.15
321.14,0.15
324.35,0.14
327.59,0.13
330.87,0.12
334.18,0.12
337.52,0.11
340.90,0.10
344.30,0.10
347.75,0.09
351.23,0.09
354.74,0.08
358.28,0.08
361.87,0.07
365.49,0.07
369.14,0.06
372.83,0.06
376.56,0.06
380.33,0.05
384.13,0.05
387.97,0.05
391.85,0.05
395.77,0.04
399.73,0.04
403.72,0.04
407.76,0.04
411.84,0.03
415.96,0.03
420.12,0.03
424.32,0.03
428.56,0.02
432.85,0.02
437.18,0.02
441.55,0.01
445.96,0.01
450.42,0.01
454.93,0.01
459.48,0.00
464.07,-0.00
468.71,-0.00
473.40,-0.01
478.13,-0.01
482.91,-0.01
487.74,-0.02
492.62,-0.02
497.55,-0.02
502.52,-0.03
507.55,-0.03
512.62,-0.04
517.75,-0.04
522.93,-0.05
528.16,-0.05
533.44,-0.05
538.77,-0.06
544.16,-0.06
549.60,-0.07
555.10,-0.07
560.65,-0.08
566.25,-0.08
571.92,-0.09
577.64,-0.09
583.41,-0.10
589.25,-0.10
595.14,-0.11
601.09,-0.11
607.10,-0.12
613.17,-0.13
619.30,-0.14
625.50,-0.15
631.75,-0.16
638.07,-0.16
644.45,-0.17
650.89,-0.18
657.40,-0.20
663.98,-0.21
670.62,-0.22
677.32,-0.23
684.10,-0.25
690.94,-0.26
697.85,-0.28
704.83,-0.29
711.87,-0.31
718.99,-0.32
726.18,-0.34
733.44,-0.35
740.78,-0.37
748.19,-0.38
755.67,-0.40
763.23,-0.41
770.86,-0.43
778.57,-0.44
786.35,-0.45
794.22,-0.46
802.16,-0.47
810.18,-0.48
818.28,-0.48
826.46,-0.49
834.73,-0.48
843.08,-0.48
851.51,-0.48
860.02,-0.47
868.62,-0.46
877.31,-0.45
886.08,-0.43
894.94,-0.42
903.89,-0.39
912.93,-0.37
922.06,-0.34
931.28,-0.31
940.59,-0.27
950.00,-0.24
959.50,-0.20
969.09,-0.15
978.78,-0.11
988.57,-0.06
998.46,-0.01
1008.44,0.05
1018.53,0.10
1028.71,0.16
1039.00,0.22
1049.39,0.28
1059.88,0.34
1070.48,0.40
1081.19,0.47
1092.00,0.53
1102.92,0.59
1113.95,0.66
1125.09,0.72
1136.34,0.78
1147.70,0.85
1159.18,0.91
1170.77,0.97
1182.48,1.03
1194.30,1.08
1206.25,1.14
1218.31,1.20
1230.49,1.25
1242.80,1.30
1255.22,1.36
1267.78,1.40
1280.45,1.45
1293.26,1.50
1306.19,1.54
1319.25,1.59
1332.45,1.63
1345.77,1.67
1359.23,1.71
1372.82,1.75
1386.55,1.79
1400.41,1.82
1414.42,1.86
1428.56,1.90
1442.85,1.93
1457.28,1.97
1471.85,2.00
1486.57,2.04
1501.43,2.08
1516.45,2.11
1531.61,2.15
1546.93,2.19
1562.40,2.22
1578.02,2.26
1593.80,2.30
1609.74,2.34
1625.84,2.39
1642.10,2.43
1658.52,2.47
1675.10,2.52
1691.85,2.57
1708.77,2.62
1725.86,2.67
1743.12,2.72
1760.55,2.78
1778.15,2.83
1795.94,2.89
1813.90,2.95
1832.03,3.01
1850.36,3.08
1868.86,3.14
1887.55,3.21
1906.42,3.28
1925.49,3.36
1944.74,3.43
1964.19,3.51
1983.83,3.59
2003.67,3.67
2023.71,3.76
2043.94,3.84
2064.38,3.93
2085.03,4.03
2105.88,4.12
2126.94,4.22
2148.20,4.32
2169.69,4.42
2191.38,4.52
2213.30,4.62
2235.43,4.73
2257.78,4.84
2280.36,4.94
2303.17,5.05
2326.20,5.16
2349.46,5.27
2372.95,5.38
2396.68,5.49
2420.65,5.60
2444.86,5.71
2469.31,5.81
2494.00,5.92
2518.94,6.01
2544.13,6.11
2569.57,6.20
2595.27,6.29
2621.22,6.37
2647.43,6.45
2673.90,6.51
2700.64,6.57
2727.65,6.62
2754.93,6.66
2782.48,6.70
2810.30,6.73
2838.40,6.73
2866.79,6.74
2895.46,6.74
2924.41,6.71
2953.65,6.68
2983.19,6.64
3013.02,6.59
3043.15,6.52
3073.58,6.45
3104.32,6.36
3135.36,6.26
3166.72,6.16
3198.38,6.04
3230.37,5.93
3262.67,5.80
3295.30,5.68
3328.25,5.55
3361.53,5.41
3395.15,5.28
3429.10,5.15
3463.39,5.01
3498.03,4.88
3533.01,4.75
3568.34,4.63
3604.02,4.52
3640.06,4.40
3676.46,4.31
3713.22,4.21
3750.36,4.12
3787.86,4.07
3825.74,4.02
3864.00,3.97
3902.64,3.96
3941.66,3.96
3981.08,3.97
4020.89,4.00
4061.10,4.05
4101.71,4.10
4142.73,4.16
4184.15,4.23
4226.00,4.30
4268.26,4.35
4310.94,4.40
4354.05,4.45
4397.59,4.47
4441.56,4.48
4485.98,4.49
4530.84,4.49
4576.15,4.47
4621.91,4.46
4668.13,4.42
4714.81,4.39
4761.96,4.36
4809.58,4.31
4857.67,4.26
4906.25,4.20
4955.31,4.14
5004.87,4.08
5054.91,3.99
5105.46,3.90
5156.52,3.81
5208.08,3.69
5260.16,3.57
5312.77,3.44
5365.89,3.29
5419.55,3.13
5473.75,2.97
5528.49,2.79
5583.77,2.61
5639.61,2.42
5696.00,2.22
5752.96,2.03
5810.49,1.84
5868.60,1.67
5927.28,1.49
5986.56,1.32
6046.42,1.18
6106.89,1.06
6167.96,0.94
6229.64,0.87
6291.93,0.81
6354.85,0.81
6418.40,0.83
6482.58,0.85
6547.41,0.95
6612.88,1.08
6679.01,1.20
6745.80,1.40
6813.26,1.62
6881.39,1.85
6950.21,2.11
7019.71,2.38
7089.91,2.66
7160.81,2.92
7232.41,3.19
7304.74,3.44
7377.79,3.62
7451.56,3.80
7526.08,3.94
7601.34,4.01
7677.35,4.07
7754.13,4.13
7831.67,4.11
7909.98,4.10
7989.08,4.09
8068.98,4.09
8149.67,4.08
8231.16,4.08
8313.47,4.10
8396.61,4.14
8480.57,4.17
8565.38,4.19
8651.03,4.22
8737.54,4.24
8824.92,4.20
8913.17,4.15
9002.30,4.10
9092.32,4.03
9183.25,3.95
9275.08,3.89
9367.83,3.86
9461.51,3.83
9556.12,3.75
9651.68,3.63
9748.20,3.51
9845.68,3.20
9944.14,2.89
10043.58,2.55
10144.02,2.18
10245.46,1.80
10347.91,1.47
10451.39,1.18
10555.91,0.88
10661.46,0.70
10768.08,0.58
10875.76,0.47
10984.52,0.52
11094.36,0.61
11205.31,0.70
11317.36,0.86
11430.53,1.03
11544.84,1.16
11660.29,1.25
11776.89,1.34
11894.66,1.34
12013.60,1.31
12133.74,1.28
12255.08,1.20
12377.63,1.05
12501.41,0.90
12626.42,0.58
12752.68,0.26
12880.21,-0.19
13009.01,-0.71
13139.10,-1.23
13270.49,-1.79
13403.20,-2.38
13537.23,-2.97
13672.60,-3.51
13809.33,-4.00
13947.42,-4.49
14086.90,-4.84
14227.77,-5.09
14370.04,-5.34
14513.74,-5.57
14658.88,-5.53
14805.47,-5.48
14953.52,-5.44
15103.06,-5.33
15254.09,-5.20
15406.63,-5.06
15560.70,-5.06
15716.30,-5.27
15873.47,-5.48
16032.20,-5.79
16192.52,-6.51
16354.45,-7.23
16517.99,-7.97
16683.17,-8.88
16850.01,-9.79
17018.51,-10.69
17188.69,-11.42
17360.58,-12.16
17534.18,-12.85
17709.53,-13.37
17886.62,-13.88
18065.49,-14.30
18246.14,-14.58
18428.60,-14.85
18612.89,-14.93
18799.02,-14.88
18987.01,-14.82
19176.88,-14.99
19368.65,-15.17
19562.33,-15.44
19757.96,-15.88
19955.54,-16.32
