frequency,raw,smoothed,error,error_smoothed,equalization,parametric_eq,fixed_band_eq,equalized_raw,equalized_smoothed,target
20.00,7.32,7.32,4.40,4.40,-4.39,-7.96,-3.75,2.93,2.93,2.92
20.20,7.49,7.48,4.54,4.53,-4.53,-7.96,-3.85,2.96,2.95,2.95
20.40,7.65,7.65,4.67,4.67,-4.67,-7.97,-3.96,2.98,2.98,2.98
20.61,7.80,7.81,4.81,4.81,-4.81,-7.97,-4.07,2.99,3.00,3.00
20.81,7.97,7.97,4.94,4.94,-4.95,-7.97,-4.18,3.02,3.02,3.03
21.02,8.14,8.13,5.08,5.08,-5.10,-7.97,-4.29,3.04,3.04,3.06
21.23,8.30,8.30,5.23,5.23,-5.24,-7.97,-4.41,3.05,3.05,3.07
21.44,8.47,8.47,5.39,5.39,-5.39,-7.98,-4.53,3.08,3.07,3.08
21.66,8.62,8.63,5.54,5.55,-5.55,-7.98,-4.65,3.08,3.08,3.08
21.87,8.80,8.80,5.72,5.71,-5.70,-7.98,-4.78,3.10,3.09,3.08
22.09,8.96,8.95,5.86,5.86,-5.86,-7.99,-4.91,3.10,3.09,3.09
22.31,9.11,9.11,6.02,6.02,-6.02,-7.99,-5.05,3.09,3.09,3.09
22.54,9.25,9.26,6.16,6.17,-6.17,-7.99,-5.19,3.09,3.09,3.09
22.76,9.41,9.41,6.32,6.32,-6.31,-8.00,-5.33,3.09,3.09,3.09
22.99,9.55,9.54,6.47,6.46,-6.45,-8.00,-5.47,3.09,3.09,3.08
23.22,9.68,9.68,6.60,6.60,-6.59,-8.01,-5.62,3.09,3.09,3.08
23.45,9.80,9.80,6.72,6.72,-6.72,-8.01,-5.77,3.08,3.08,3.08
23.69,9.92,9.92,6.85,6.84,-6.84,-8.01,-5.93,3.08,3.08,3.08
23.92,10.04,10.04,6.96,6.96,-6.96,-8.02,-6.09,3.08,3.08,3.08
24.16,10.16,10.16,7.07,7.07,-7.08,-8.03,-6.25,3.08,3.08,3.09
24.40,10.27,10.27,7.18,7.19,-7.19,-8.03,-6.42,3.08,3.08,3.09
24.65,10.38,10.37,7.30,7.30,-7.30,-8.04,-6.59,3.08,3.08,3.08
24.89,10.48,10.48,7.40,7.40,-7.41,-8.04,-6.76,3.07,3.07,3.07
25.14,10.58,10.58,7.50,7.51,-7.51,-8.05,-6.93,3.07,3.07,3.07
25.39,10.69,10.68,7.62,7.61,-7.61,-8.06,-7.11,3.08,3.07,3.07
25.65,10.78,10.78,7.70,7.71,-7.71,-8.07,-7.29,3.07,3.07,3.07
25.91,10.87,10.87,7.80,7.80,-7.80,-8.08,-7.46,3.06,3.07,3.06
26.16,10.96,10.95,7.90,7.89,-7.89,-8.08,-7.64,3.07,3.06,3.06
26.43,11.04,11.04,7.98,7.98,-7.98,-8.09,-7.82,3.06,3.06,3.06
26.69,11.12,11.11,8.06,8.06,-8.06,-8.11,-8.00,3.06,3.06,3.06
26.96,11.19,11.19,8.13,8.13,-8.13,-8.12,-8.18,3.05,3.05,3.06
27.23,11.26,11.26,8.20,8.20,-8.21,-8.13,-8.36,3.05,3.05,3.05
27.50,11.33,11.32,8.27,8.27,-8.28,-8.14,-8.53,3.05,3.04,3.05
27.77,11.39,11.39,8.35,8.35,-8.35,-8.16,-8.70,3.04,3.04,3.04
28.05,11.46,11.46,8.42,8.42,-8.42,-8.17,-8.86,3.04,3.04,3.04
28.33,11.52,11.51,8.49,8.48,-8.48,-8.19,-9.02,3.04,3.03,3.03
28.62,11.57,11.57,8.54,8.54,-8.54,-8.21,-9.17,3.03,3.03,3.03
28.90,11.62,11.62,8.59,8.60,-8.59,-8.23,-9.31,3.03,3.03,3.03
29.19,11.67,11.66,8.65,8.64,-8.64,-8.25,-9.44,3.03,3.02,3.01
29.48,11.70,11.70,8.67,8.68,-8.68,-8.27,-9.55,3.02,3.02,3.02
29.78,11.73,11.73,8.72,8.72,-8.72,-8.30,-9.67,3.01,3.01,3.01
30.08,11.76,11.75,8.75,8.75,-8.75,-8.33,-9.76,3.01,3.00,3.01
30.38,11.78,11.78,8.78,8.78,-8.78,-8.36,-9.84,3.00,3.00,3.00
30.68,11.80,11.80,8.80,8.81,-8.80,-8.39,-9.90,2.99,2.99,2.99
30.99,11.82,11.81,8.83,8.83,-8.83,-8.42,-9.95,2.99,2.99,2.98
31.30,11.83,11.83,8.85,8.85,-8.85,-8.46,-9.98,2.98,2.98,2.98
31.61,11.85,11.84,8.87,8.87,-8.87,-8.49,-10.00,2.98,2.98,2.98
31.93,11.86,11.86,8.89,8.89,-8.89,-8.53,-10.00,2.97,2.97,2.97
32.24,11.87,11.87,8.91,8.91,-8.92,-8.57,-9.99,2.95,2.95,2.95
32.57,11.89,11.88,8.94,8.93,-8.95,-8.61,-9.96,2.94,2.94,2.95
32.89,11.91,11.91,8.96,8.96,-8.98,-8.66,-9.92,2.92,2.93,2.95
33.22,11.94,11.94,9.00,9.00,-9.02,-8.70,-9.87,2.91,2.92,2.94
33.55,11.99,11.98,9.05,9.05,-9.07,-8.74,-9.80,2.92,2.92,2.93
33.89,12.03,12.03,9.11,9.11,-9.11,-8.77,-9.73,2.92,2.92,2.92
34.23,12.07,12.07,9.15,9.15,-9.14,-8.81,-9.64,2.93,2.93,2.92
34.57,12.10,12.09,9.19,9.19,-9.17,-8.84,-9.55,2.93,2.92,2.90
34.92,12.10,12.10,9.21,9.20,-9.18,-8.86,-9.45,2.91,2.92,2.89
35.27,12.09,12.09,9.20,9.20,-9.19,-8.88,-9.34,2.90,2.90,2.89
35.62,12.06,12.06,9.18,9.18,-9.18,-8.89,-9.24,2.88,2.88,2.87
35.97,12.02,12.02,9.16,9.15,-9.16,-8.88,-9.12,2.86,2.86,2.86
36.33,11.97,11.97,9.11,9.12,-9.12,-8.87,-9.01,2.84,2.85,2.86
36.70,11.92,11.92,9.07,9.08,-9.08,-8.85,-8.89,2.84,2.84,2.84
37.06,11.87,11.86,9.04,9.03,-9.03,-8.83,-8.78,2.83,2.83,2.83
37.43,11.81,11.80,8.98,8.98,-8.98,-8.79,-8.66,2.82,2.82,2.82
37.81,11.74,11.74,8.93,8.93,-8.93,-8.76,-8.55,2.81,2.81,2.81
38.19,11.67,11.67,8.87,8.87,-8.87,-8.71,-8.44,2.80,2.80,2.80
38.57,11.60,11.60,8.81,8.81,-8.81,-8.66,-8.33,2.78,2.78,2.79
38.95,11.53,11.53,8.75,8.75,-8.75,-8.62,-8.23,2.77,2.77,2.78
39.34,11.46,11.45,8.70,8.69,-8.69,-8.56,-8.12,2.76,2.76,2.76
39.74,11.38,11.38,8.63,8.63,-8.63,-8.51,-8.03,2.75,2.75,2.75
40.14,11.31,11.31,8.57,8.57,-8.57,-8.46,-7.93,2.74,2.74,2.74
40.54,11.24,11.24,8.51,8.51,-8.51,-8.42,-7.84,2.73,2.73,2.72
40.94,11.17,11.17,8.45,8.45,-8.45,-8.37,-7.76,2.72,2.72,2.72
41.35,11.10,11.10,8.39,8.39,-8.39,-8.32,-7.68,2.71,2.71,2.70
41.76,11.03,11.03,8.33,8.33,-8.33,-8.28,-7.60,2.70,2.70,2.70
42.18,10.96,10.96,8.27,8.27,-8.27,-8.24,-7.53,2.68,2.68,2.69
42.60,10.89,10.89,8.21,8.21,-8.22,-8.19,-7.47,2.67,2.67,2.67
43.03,10.83,10.83,8.16,8.16,-8.17,-8.16,-7.41,2.66,2.66,2.67
43.46,10.77,10.77,8.12,8.12,-8.12,-8.12,-7.36,2.64,2.64,2.65
43.90,10.71,10.71,8.09,8.08,-8.08,-8.08,-7.31,2.63,2.63,2.62
44.33,10.65,10.65,8.04,8.04,-8.04,-8.05,-7.26,2.61,2.61,2.60
44.78,10.59,10.59,8.00,8.00,-8.00,-8.02,-7.23,2.59,2.59,2.59
45.23,10.53,10.53,7.96,7.96,-7.96,-7.99,-7.19,2.57,2.57,2.57
45.68,10.48,10.48,7.93,7.93,-7.93,-7.96,-7.17,2.55,2.55,2.55
46.13,10.43,10.42,7.90,7.89,-7.89,-7.93,-7.15,2.54,2.53,2.53
46.60,10.37,10.37,7.85,7.85,-7.86,-7.90,-7.13,2.51,2.51,2.52
47.06,10.32,10.32,7.82,7.82,-7.83,-7.87,-7.12,2.49,2.50,2.50
47.53,10.28,10.28,7.80,7.79,-7.79,-7.85,-7.11,2.48,2.49,2.48
48.01,10.24,10.23,7.77,7.77,-7.76,-7.82,-7.11,2.48,2.48,2.47
48.49,10.19,10.18,7.75,7.74,-7.73,-7.80,-7.11,2.46,2.46,2.44
48.97,10.13,10.12,7.72,7.71,-7.70,-7.77,-7.12,2.42,2.42,2.41
49.46,10.06,10.06,7.68,7.68,-7.68,-7.75,-7.13,2.37,2.37,2.38
49.96,9.99,10.00,7.64,7.64,-7.67,-7.72,-7.14,2.32,2.33,2.35
50.46,9.96,9.96,7.62,7.63,-7.66,-7.70,-7.16,2.30,2.30,2.33
50.96,9.94,9.94,7.63,7.64,-7.65,-7.68,-7.18,2.29,2.29,2.31
51.47,9.94,9.93,7.66,7.65,-7.65,-7.65,-7.21,2.29,2.28,2.28
51.99,9.92,9.91,7.66,7.66,-7.64,-7.63,-7.23,2.27,2.27,2.25
52.51,9.89,9.89,7.65,7.65,-7.64,-7.61,-7.26,2.25,2.25,2.24
53.03,9.86,9.86,7.64,7.64,-7.63,-7.58,-7.29,2.22,2.22,2.22
53.56,9.82,9.82,7.63,7.62,-7.62,-7.56,-7.32,2.20,2.20,2.19
54.10,9.77,9.77,7.60,7.60,-7.59,-7.53,-7.35,2.17,2.17,2.17
54.64,9.71,9.71,7.57,7.57,-7.56,-7.51,-7.38,2.15,2.15,2.14
55.18,9.64,9.64,7.52,7.52,-7.52,-7.48,-7.41,2.12,2.12,2.11
55.74,9.57,9.56,7.48,7.47,-7.47,-7.46,-7.44,2.10,2.09,2.09
56.29,9.48,9.48,7.41,7.42,-7.42,-7.43,-7.47,2.06,2.06,2.07
56.86,9.40,9.40,7.36,7.36,-7.36,-7.41,-7.50,2.03,2.03,2.04
57.42,9.32,9.32,7.30,7.30,-7.31,-7.38,-7.52,2.01,2.01,2.01
58.00,9.25,9.25,7.25,7.25,-7.26,-7.35,-7.54,1.99,1.99,1.99
58.58,9.18,9.18,7.20,7.21,-7.21,-7.33,-7.55,1.96,1.96,1.97
59.16,9.12,9.12,7.16,7.16,-7.17,-7.30,-7.56,1.94,1.94,1.95
59.76,9.06,9.06,7.13,7.13,-7.14,-7.27,-7.57,1.92,1.92,1.93
60.35,9.00,9.00,7.10,7.10,-7.10,-7.24,-7.57,1.90,1.90,1.90
60.96,8.94,8.94,7.06,7.07,-7.06,-7.21,-7.56,1.87,1.87,1.88
61.57,8.88,8.87,7.04,7.04,-7.03,-7.18,-7.54,1.85,1.85,1.83
62.18,8.80,8.80,7.00,6.99,-6.98,-7.15,-7.52,1.81,1.82,1.80
62.80,8.72,8.72,6.94,6.95,-6.93,-7.12,-7.50,1.78,1.78,1.78
63.43,8.63,8.63,6.89,6.89,-6.88,-7.09,-7.46,1.75,1.75,1.74
64.07,8.54,8.54,6.82,6.82,-6.82,-7.06,-7.42,1.72,1.72,1.71
64.71,8.44,8.44,6.75,6.75,-6.75,-7.02,-7.38,1.69,1.69,1.69
65.35,8.34,8.34,6.68,6.68,-6.68,-6.99,-7.32,1.66,1.66,1.66
66.01,8.24,8.24,6.61,6.61,-6.61,-6.96,-7.27,1.63,1.63,1.63
66.67,8.15,8.14,6.54,6.54,-6.54,-6.92,-7.20,1.60,1.60,1.60
67.33,8.05,8.05,6.47,6.48,-6.48,-6.88,-7.13,1.57,1.57,1.57
68.01,7.96,7.96,6.41,6.42,-6.42,-6.85,-7.06,1.54,1.54,1.54
68.69,7.88,7.87,6.37,6.36,-6.37,-6.81,-6.98,1.51,1.51,1.51
69.37,7.80,7.80,6.32,6.32,-6.32,-6.77,-6.90,1.48,1.48,1.48
70.07,7.73,7.73,6.28,6.28,-6.28,-6.73,-6.82,1.45,1.45,1.45
70.77,7.67,7.67,6.24,6.25,-6.24,-6.69,-6.73,1.43,1.42,1.42
71.48,7.61,7.60,6.22,6.21,-6.21,-6.65,-6.64,1.40,1.39,1.39
72.19,7.54,7.54,6.18,6.19,-6.19,-6.61,-6.55,1.35,1.35,1.35
72.91,7.48,7.48,6.16,6.16,-6.17,-6.57,-6.46,1.31,1.31,1.32
73.64,7.44,7.43,6.16,6.15,-6.16,-6.53,-6.37,1.28,1.27,1.28
74.38,7.40,7.40,6.14,6.15,-6.15,-6.48,-6.28,1.24,1.24,1.25
75.12,7.37,7.37,6.15,6.15,-6.15,-6.44,-6.19,1.22,1.22,1.21
75.87,7.34,7.34,6.15,6.15,-6.15,-6.40,-6.10,1.19,1.19,1.19
76.63,7.31,7.31,6.15,6.15,-6.15,-6.35,-6.02,1.16,1.16,1.15
77.40,7.28,7.27,6.15,6.15,-6.15,-6.30,-5.93,1.13,1.13,1.12
78.17,7.24,7.24,6.15,6.15,-6.14,-6.26,-5.85,1.09,1.09,1.08
78.95,7.20,7.20,6.14,6.14,-6.14,-6.21,-5.77,1.06,1.06,1.06
79.74,7.16,7.15,6.13,6.13,-6.12,-6.16,-5.69,1.03,1.03,1.03
80.54,7.10,7.10,6.10,6.11,-6.11,-6.11,-5.62,0.99,1.00,0.99
81.35,7.05,7.04,6.09,6.08,-6.08,-6.07,-5.55,0.96,0.96,0.96
82.16,6.98,6.98,6.06,6.06,-6.06,-6.02,-5.48,0.92,0.92,0.92
82.98,6.92,6.92,6.02,6.03,-6.03,-5.97,-5.42,0.88,0.89,0.90
83.81,6.86,6.85,6.01,6.00,-6.00,-5.92,-5.35,0.85,0.85,0.85
84.65,6.79,6.79,5.98,5.97,-5.97,-5.87,-5.30,0.82,0.82,0.81
85.50,6.72,6.72,5.94,5.94,-5.94,-5.82,-5.24,0.78,0.78,0.78
86.35,6.65,6.65,5.90,5.91,-5.90,-5.76,-5.19,0.74,0.74,0.74
87.22,6.58,6.57,5.87,5.87,-5.87,-5.71,-5.15,0.71,0.70,0.70
88.09,6.50,6.50,5.83,5.83,-5.84,-5.66,-5.11,0.66,0.66,0.66
88.97,6.43,6.43,5.80,5.80,-5.81,-5.61,-5.07,0.62,0.62,0.63
89.86,6.36,6.36,5.77,5.77,-5.77,-5.56,-5.03,0.58,0.58,0.59
90.76,6.29,6.28,5.75,5.74,-5.74,-5.51,-5.00,0.55,0.54,0.54
91.66,6.21,6.21,5.70,5.71,-5.71,-5.46,-4.97,0.50,0.50,0.51
92.58,6.14,6.14,5.68,5.68,-5.67,-5.40,-4.95,0.46,0.46,0.45
93.51,6.06,6.06,5.64,5.64,-5.64,-5.35,-4.93,0.42,0.42,0.42
94.44,5.98,5.98,5.60,5.60,-5.60,-5.30,-4.91,0.37,0.37,0.37
95.39,5.89,5.89,5.56,5.56,-5.57,-5.25,-4.90,0.32,0.32,0.33
96.34,5.81,5.80,5.53,5.53,-5.53,-5.20,-4.89,0.28,0.28,0.28
97.30,5.72,5.72,5.49,5.49,-5.48,-5.15,-4.88,0.23,0.23,0.23
98.28,5.63,5.63,5.44,5.44,-5.44,-5.10,-4.88,0.19,0.19,0.18
99.26,5.54,5.53,5.40,5.40,-5.40,-5.05,-4.88,0.14,0.14,0.14
100.25,5.44,5.44,5.34,5.35,-5.35,-5.01,-4.88,0.09,0.09,0.09
101.25,5.35,5.34,5.30,5.30,-5.30,-4.96,-4.88,0.05,0.04,0.05
102.27,5.25,5.25,5.25,5.25,-5.25,-4.91,-4.89,0.00,0.00,0.00
103.29,5.15,5.15,5.20,5.20,-5.19,-4.87,-4.89,-0.04,-0.04,-0.06
104.32,5.05,5.04,5.14,5.14,-5.12,-4.83,-4.90,-0.08,-0.08,-0.09
105.37,4.93,4.93,5.07,5.07,-5.05,-4.78,-4.91,-0.13,-0.12,-0.14
106.42,4.81,4.81,4.99,4.99,-4.98,-4.74,-4.92,-0.18,-0.18,-0.18
107.48,4.69,4.68,4.92,4.92,-4.92,-4.70,-4.93,-0.23,-0.23,-0.23
108.56,4.56,4.56,4.84,4.84,-4.85,-4.66,-4.94,-0.30,-0.29,-0.29
109.64,4.45,4.44,4.78,4.77,-4.80,-4.63,-4.95,-0.35,-0.35,-0.33
110.74,4.34,4.34,4.72,4.72,-4.75,-4.59,-4.96,-0.41,-0.41,-0.38
111.85,4.26,4.26,4.68,4.69,-4.71,-4.56,-4.97,-0.45,-0.45,-0.42
112.97,4.19,4.19,4.68,4.67,-4.68,-4.53,-4.98,-0.49,-0.49,-0.49
114.10,4.12,4.12,4.65,4.65,-4.65,-4.49,-4.99,-0.53,-0.53,-0.53
115.24,4.05,4.04,4.64,4.63,-4.61,-4.47,-4.99,-0.57,-0.57,-0.59
116.39,3.96,3.96,4.60,4.60,-4.58,-4.44,-4.99,-0.62,-0.62,-0.64
117.55,3.87,3.87,4.57,4.56,-4.54,-4.41,-4.98,-0.67,-0.68,-0.70
118.73,3.77,3.76,4.52,4.51,-4.50,-4.39,-4.98,-0.73,-0.74,-0.75
119.92,3.65,3.65,4.44,4.45,-4.45,-4.37,-4.96,-0.80,-0.80,-0.80
121.12,3.54,3.54,4.39,4.39,-4.40,-4.35,-4.95,-0.86,-0.86,-0.85
122.33,3.44,3.43,4.34,4.33,-4.35,-4.33,-4.93,-0.91,-0.92,-0.90
123.55,3.34,3.34,4.28,4.29,-4.31,-4.31,-4.91,-0.97,-0.97,-0.94
124.79,3.26,3.26,4.25,4.25,-4.27,-4.30,-4.88,-1.01,-1.01,-0.99
126.03,3.19,3.19,4.23,4.23,-4.24,-4.28,-4.85,-1.06,-1.05,-1.04
127.29,3.13,3.12,4.22,4.22,-4.22,-4.27,-4.81,-1.09,-1.09,-1.09
128.57,3.06,3.06,4.21,4.21,-4.20,-4.26,-4.77,-1.14,-1.14,-1.15
129.85,2.99,2.99,4.19,4.19,-4.17,-4.25,-4.72,-1.19,-1.19,-1.20
131.15,2.92,2.91,4.17,4.16,-4.15,-4.24,-4.67,-1.24,-1.24,-1.25
132.46,2.84,2.84,4.13,4.13,-4.13,-4.23,-4.61,-1.29,-1.29,-1.30
133.79,2.76,2.76,4.09,4.10,-4.10,-4.21,-4.55,-1.34,-1.34,-1.33
135.12,2.68,2.68,4.07,4.06,-4.07,-4.20,-4.49,-1.39,-1.39,-1.39
136.48,2.60,2.60,4.02,4.02,-4.03,-4.19,-4.42,-1.43,-1.43,-1.43
137.84,2.52,2.52,3.99,3.99,-3.99,-4.17,-4.35,-1.48,-1.48,-1.47
139.22,2.44,2.44,3.96,3.95,-3.95,-4.15,-4.28,-1.52,-1.52,-1.52
140.61,2.36,2.36,3.92,3.92,-3.91,-4.13,-4.20,-1.56,-1.56,-1.57
142.02,2.28,2.28,3.86,3.87,-3.87,-4.11,-4.12,-1.59,-1.59,-1.59
143.44,2.20,2.20,3.83,3.83,-3.83,-4.08,-4.04,-1.63,-1.63,-1.63
144.87,2.12,2.11,3.79,3.78,-3.78,-4.05,-3.96,-1.66,-1.66,-1.67
146.32,2.03,2.03,3.74,3.73,-3.73,-4.01,-3.88,-1.70,-1.70,-1.71
147.78,1.94,1.94,3.67,3.68,-3.68,-3.98,-3.80,-1.74,-1.74,-1.74
149.26,1.85,1.85,3.62,3.63,-3.63,-3.93,-3.72,-1.78,-1.78,-1.78
150.75,1.76,1.76,3.58,3.57,-3.58,-3.88,-3.64,-1.82,-1.82,-1.82
152.26,1.67,1.67,3.53,3.53,-3.53,-3.83,-3.55,-1.86,-1.86,-1.86
153.78,1.58,1.58,3.47,3.48,-3.48,-3.77,-3.47,-1.90,-1.90,-1.89
155.32,1.50,1.49,3.44,3.43,-3.43,-3.70,-3.39,-1.94,-1.94,-1.94
156.88,1.41,1.41,3.38,3.39,-3.39,-3.64,-3.31,-1.98,-1.98,-1.97
158.44,1.33,1.32,3.34,3.34,-3.34,-3.57,-3.23,-2.01,-2.01,-2.02
160.03,1.24,1.24,3.30,3.29,-3.29,-3.49,-3.15,-2.05,-2.06,-2.06
161.63,1.15,1.15,3.25,3.25,-3.24,-3.41,-3.08,-2.10,-2.10,-2.10
163.24,1.06,1.06,3.20,3.20,-3.19,-3.33,-3.00,-2.14,-2.13,-2.14
164.88,0.98,0.97,3.15,3.15,-3.15,-3.25,-2.93,-2.17,-2.17,-2.17
166.53,0.89,0.89,3.10,3.10,-3.10,-3.16,-2.85,-2.21,-2.21,-2.21
168.19,0.80,0.80,3.04,3.04,-3.05,-3.08,-2.78,-2.25,-2.25,-2.25
169.87,0.71,0.71,2.99,3.00,-3.00,-2.99,-2.71,-2.29,-2.29,-2.29
171.57,0.63,0.63,2.95,2.95,-2.95,-2.90,-2.65,-2.33,-2.33,-2.32
173.29,0.55,0.55,2.91,2.90,-2.91,-2.81,-2.58,-2.36,-2.36,-2.36
175.02,0.47,0.47,2.86,2.86,-2.87,-2.72,-2.52,-2.40,-2.40,-2.39
176.77,0.39,0.39,2.83,2.83,-2.82,-2.63,-2.46,-2.44,-2.43,-2.44
178.54,0.31,0.31,2.79,2.78,-2.78,-2.54,-2.40,-2.47,-2.47,-2.48
180.32,0.23,0.22,2.74,2.74,-2.74,-2.46,-2.34,-2.51,-2.51,-2.52
182.13,0.14,0.14,2.69,2.69,-2.69,-2.37,-2.28,-2.56,-2.55,-2.55
183.95,0.06,0.06,2.65,2.65,-2.65,-2.29,-2.23,-2.59,-2.59,-2.59
185.79,-0.02,-0.02,2.60,2.60,-2.60,-2.20,-2.18,-2.62,-2.62,-2.62
187.65,-0.10,-0.10,2.56,2.56,-2.55,-2.12,-2.12,-2.65,-2.65,-2.66
189.52,-0.18,-0.19,2.51,2.51,-2.50,-2.04,-2.07,-2.68,-2.69,-2.69
191.42,-0.27,-0.27,2.45,2.45,-2.45,-1.96,-2.03,-2.73,-2.72,-2.72
193.33,-0.35,-0.35,2.40,2.40,-2.40,-1.89,-1.98,-2.76,-2.76,-2.75
195.27,-0.43,-0.43,2.35,2.35,-2.35,-1.82,-1.93,-2.79,-2.79,-2.78
197.22,-0.51,-0.51,2.29,2.30,-2.30,-1.75,-1.89,-2.82,-2.81,-2.81
199.19,-0.58,-0.58,2.26,2.25,-2.25,-1.67,-1.85,-2.84,-2.84,-2.84
201.18,-0.65,-0.65,2.21,2.21,-2.20,-1.61,-1.81,-2.86,-2.86,-2.86
203.19,-0.72,-0.72,2.15,2.16,-2.15,-1.54,-1.77,-2.88,-2.87,-2.88
205.23,-0.79,-0.79,2.11,2.10,-2.10,-1.48,-1.73,-2.89,-2.89,-2.90
207.28,-0.86,-0.87,2.04,2.05,-2.05,-1.42,-1.69,-2.91,-2.91,-2.91
209.35,-0.94,-0.94,1.99,1.99,-1.99,-1.36,-1.66,-2.94,-2.93,-2.93
211.44,-1.01,-1.01,1.94,1.93,-1.94,-1.30,-1.62,-2.95,-2.95,-2.96
213.56,-1.08,-1.08,1.88,1.88,-1.88,-1.24,-1.59,-2.97,-2.97,-2.96
215.69,-1.15,-1.15,1.81,1.82,-1.82,-1.19,-1.56,-2.98,-2.97,-2.96
217.85,-1.21,-1.22,1.76,1.76,-1.76,-1.14,-1.52,-2.98,-2.98,-2.98
220.03,-1.28,-1.28,1.71,1.70,-1.70,-1.08,-1.49,-2.98,-2.98,-2.99
222.23,-1.35,-1.35,1.65,1.64,-1.63,-1.03,-1.46,-2.98,-2.98,-3.00
224.45,-1.42,-1.43,1.57,1.57,-1.55,-0.99,-1.43,-2.98,-2.98,-2.99
226.70,-1.50,-1.51,1.49,1.49,-1.48,-0.94,-1.40,-2.98,-2.98,-2.99
228.96,-1.59,-1.59,1.40,1.40,-1.40,-0.89,-1.37,-3.00,-2.99,-2.99
231.25,-1.67,-1.67,1.31,1.32,-1.33,-0.85,-1.34,-3.00,-3.00,-2.98
233.57,-1.74,-1.74,1.24,1.24,-1.26,-0.81,-1.31,-3.01,-3.01,-2.98
235.90,-1.80,-1.80,1.18,1.18,-1.20,-0.76,-1.28,-3.00,-3.00,-2.98
238.26,-1.84,-1.85,1.14,1.13,-1.14,-0.72,-1.25,-2.99,-2.99,-2.98
240.64,-1.88,-1.88,1.09,1.09,-1.09,-0.68,-1.23,-2.97,-2.97,-2.97
243.05,-1.91,-1.91,1.05,1.05,-1.04,-0.64,-1.20,-2.96,-2.96,-2.96
245.48,-1.94,-1.95,1.01,1.00,-1.00,-0.61,-1.17,-2.94,-2.94,-2.95
247.93,-1.98,-1.98,0.95,0.96,-0.95,-0.57,-1.14,-2.93,-2.93,-2.94
250.41,-2.02,-2.02,0.91,0.91,-0.90,-0.53,-1.11,-2.92,-2.92,-2.94
252.92,-2.06,-2.06,0.85,0.85,-0.85,-0.49,-1.08,-2.91,-2.91,-2.91
255.45,-2.10,-2.11,0.79,0.79,-0.79,-0.46,-1.05,-2.89,-2.90,-2.89
258.00,-2.15,-2.15,0.72,0.73,-0.73,-0.42,-1.02,-2.88,-2.88,-2.88
260.58,-2.19,-2.20,0.67,0.67,-0.67,-0.39,-0.99,-2.86,-2.86,-2.86
263.19,-2.24,-2.24,0.60,0.60,-0.60,-0.36,-0.96,-2.85,-2.84,-2.84
265.82,-2.28,-2.28,0.54,0.54,-0.54,-0.32,-0.93,-2.82,-2.82,-2.83
268.48,-2.33,-2.33,0.47,0.47,-0.47,-0.29,-0.90,-2.81,-2.80,-2.80
271.16,-2.37,-2.38,0.41,0.41,-0.41,-0.26,-0.86,-2.78,-2.79,-2.78
273.87,-2.42,-2.42,0.34,0.34,-0.35,-0.23,-0.83,-2.77,-2.77,-2.76
276.61,-2.46,-2.46,0.28,0.28,-0.28,-0.19,-0.80,-2.75,-2.75,-2.74
279.38,-2.50,-2.51,0.22,0.22,-0.22,-0.16,-0.77,-2.72,-2.73,-2.73
282.17,-2.55,-2.55,0.16,0.16,-0.16,-0.13,-0.74,-2.71,-2.71,-2.71
284.99,-2.59,-2.60,0.09,0.09,-0.09,-0.10,-0.70,-2.68,-2.69,-2.69
287.84,-2.64,-2.64,0.03,0.03,-0.02,-0.07,-0.67,-2.67,-2.66,-2.67
290.72,-2.68,-2.69,-0.04,-0.04,0.04,-0.03,-0.64,-2.64,-2.64,-2.64
293.63,-2.73,-2.73,-0.10,-0.11,0.11,-0.00,-0.61,-2.62,-2.62,-2.63
296.57,-2.78,-2.78,-0.18,-0.18,0.18,0.03,-0.57,-2.60,-2.60,-2.60
299.53,-2.83,-2.83,-0.25,-0.25,0.25,0.06,-0.54,-2.58,-2.58,-2.59
302.53,-2.88,-2.88,-0.31,-0.32,0.31,0.09,-0.51,-2.57,-2.57,-2.57
305.55,-2.92,-2.92,-0.39,-0.38,0.37,0.13,-0.47,-2.55,-2.55,-2.54
308.61,-2.95,-2.95,-0.43,-0.43,0.42,0.16,-0.44,-2.53,-2.53,-2.52
311.69,-2.96,-2.97,-0.47,-0.48,0.46,0.19,-0.41,-2.50,-2.50,-2.49
314.81,-2.97,-2.97,-0.52,-0.51,0.50,0.22,-0.37,-2.47,-2.47,-2.46
317.96,-2.97,-2.97,-0.53,-0.53,0.53,0.26,-0.34,-2.44,-2.44,-2.44
321.14,-2.97,-2.97,-0.55,-0.55,0.56,0.29,-0.30,-2.41,-2.42,-2.42
324.35,-2.97,-2.98,-0.57,-0.57,0.58,0.32,-0.27,-2.39,-2.39,-2.41
327.59,-2.98,-2.98,-0.60,-0.60,0.61,0.36,-0.24,-2.38,-2.37,-2.38
330.87,-2.98,-2.99,-0.62,-0.62,0.63,0.39,-0.20,-2.35,-2.36,-2.36
334.18,-2.99,-2.99,-0.65,-0.65,0.66,0.43,-0.17,-2.34,-2.34,-2.34
337.52,-3.00,-3.00,-0.68,-0.68,0.68,0.46,-0.13,-2.32,-2.32,-2.33
340.90,-3.01,-3.01,-0.71,-0.71,0.71,0.50,-0.10,-2.30,-2.30,-2.30
344.30,-3.02,-3.03,-0.74,-0.74,0.74,0.53,-0.07,-2.28,-2.28,-2.28
347.75,-3.04,-3.04,-0.78,-0.77,0.77,0.57,-0.03,-2.27,-2.27,-2.26
351.23,-3.04,-3.05,-0.80,-0.80,0.79,0.60,0.00,-2.25,-2.25,-2.25
354.74,-3.05,-3.05,-0.82,-0.82,0.82,0.64,0.04,-2.23,-2.23,-2.23
358.28,-3.05,-3.05,-0.84,-0.84,0.84,0.67,0.07,-2.21,-2.21,-2.21
361.87,-3.05,-3.05,-0.86,-0.86,0.86,0.71,0.11,-2.19,-2.19,-2.19
365.49,-3.05,-3.06,-0.88,-0.88,0.88,0.74,0.14,-2.17,-2.17,-2.17
369.14,-3.06,-3.06,-0.90,-0.90,0.90,0.77,0.18,-2.16,-2.16,-2.17
372.83,-3.06,-3.07,-0.92,-0.92,0.92,0.81,0.21,-2.14,-2.14,-2.15
376.56,-3.07,-3.07,-0.93,-0.94,0.94,0.84,0.25,-2.13,-2.13,-2.14
380.33,-3.07,-3.08,-0.96,-0.96,0.96,0.87,0.28,-2.12,-2.12,-2.11
384.13,-3.08,-3.08,-0.98,-0.98,0.97,0.89,0.32,-2.11,-2.11,-2.10
387.97,-3.08,-3.08,-0.99,-0.99,0.99,0.92,0.35,-2.09,-2.09,-2.09
391.85,-3.08,-3.09,-1.00,-1.00,1.00,0.94,0.39,-2.08,-2.08,-2.09
395.77,-3.08,-3.08,-1.02,-1.01,1.01,0.97,0.42,-2.07,-2.07,-2.07
399.73,-3.08,-3.08,-1.02,-1.02,1.02,0.99,0.46,-2.06,-2.06,-2.06
403.72,-3.07,-3.07,-1.02,-1.02,1.03,1.00,0.49,-2.05,-2.05,-2.05
407.76,-3.06,-3.06,-1.02,-1.03,1.03,1.02,0.53,-2.04,-2.04,-2.04
411.84,-3.05,-3.05,-1.03,-1.03,1.03,1.03,0.56,-2.03,-2.03,-2.02
415.96,-3.04,-3.04,-1.03,-1.03,1.02,1.04,0.60,-2.02,-2.02,-2.01
420.12,-3.02,-3.02,-1.02,-1.02,1.01,1.04,0.63,-2.01,-2.01,-2.01
424.32,-3.00,-3.00,-1.01,-1.01,1.00,1.05,0.66,-2.00,-2.00,-2.00
428.56,-2.97,-2.98,-0.99,-0.99,0.99,1.05,0.69,-1.98,-1.99,-1.99
432.85,-2.95,-2.95,-0.97,-0.97,0.98,1.04,0.73,-1.98,-1.97,-1.98
437.18,-2.92,-2.93,-0.95,-0.96,0.97,1.04,0.76,-1.96,-1.96,-1.97
441.55,-2.90,-2.90,-0.95,-0.95,0.95,1.03,0.79,-1.95,-1.95,-1.95
445.96,-2.88,-2.88,-0.94,-0.94,0.94,1.02,0.81,-1.94,-1.94,-1.94
450.42,-2.86,-2.86,-0.93,-0.93,0.93,1.00,0.84,-1.93,-1.93,-1.93
454.93,-2.84,-2.84,-0.93,-0.92,0.92,0.99,0.87,-1.92,-1.92,-1.91
459.48,-2.81,-2.82,-0.91,-0.92,0.91,0.97,0.89,-1.90,-1.90,-1.90
464.07,-2.79,-2.79,-0.91,-0.91,0.91,0.95,0.91,-1.89,-1.88,-1.88
468.71,-2.76,-2.77,-0.90,-0.90,0.90,0.93,0.93,-1.87,-1.87,-1.87
473.40,-2.74,-2.74,-0.89,-0.89,0.89,0.91,0.95,-1.86,-1.85,-1.86
478.13,-2.71,-2.72,-0.88,-0.88,0.88,0.89,0.97,-1.84,-1.84,-1.84
