frequency,raw,smoothed,error,error_smoothed,equalization,parametric_eq,fixed_band_eq,equalized_raw,equalized_smoothed,target
20.00,5.11,5.11,-2.69,-2.69,2.69,1.92,0.60,7.80,7.80,7.80
20.20,5.15,5.15,-2.65,-2.64,2.65,1.92,0.62,7.80,7.80,7.80
20.40,5.19,5.19,-2.60,-2.60,2.61,1.91,0.64,7.80,7.80,7.80
20.61,5.23,5.23,-2.56,-2.56,2.57,1.90,0.66,7.80,7.80,7.79
20.81,5.27,5.27,-2.52,-2.53,2.53,1.89,0.68,7.80,7.79,7.79
21.02,5.30,5.30,-2.49,-2.49,2.48,1.87,0.70,7.79,7.79,7.79
21.23,5.34,5.34,-2.45,-2.45,2.44,1.86,0.72,7.78,7.79,7.79
21.44,5.39,5.39,-2.40,-2.41,2.40,1.85,0.75,7.79,7.79,7.79
21.66,5.43,5.43,-2.36,-2.36,2.36,1.84,0.77,7.79,7.79,7.79
21.87,5.47,5.47,-2.32,-2.32,2.32,1.83,0.79,7.79,7.79,7.79
22.09,5.51,5.51,-2.28,-2.28,2.28,1.82,0.82,7.79,7.79,7.79
22.31,5.55,5.55,-2.24,-2.24,2.24,1.81,0.84,7.79,7.79,7.79
22.54,5.59,5.59,-2.20,-2.20,2.20,1.80,0.87,7.79,7.79,7.79
22.76,5.63,5.63,-2.16,-2.16,2.16,1.78,0.90,7.79,7.79,7.79
22.99,5.67,5.67,-2.11,-2.12,2.12,1.77,0.92,7.79,7.79,7.79
23.22,5.70,5.70,-2.08,-2.08,2.08,1.76,0.95,7.78,7.78,7.78
23.45,5.74,5.74,-2.04,-2.04,2.04,1.75,0.98,7.78,7.78,7.78
23.69,5.78,5.78,-2.00,-2.01,2.00,1.73,1.01,7.78,7.78,7.78
23.92,5.81,5.82,-1.97,-1.97,1.97,1.72,1.04,7.78,7.78,7.78
24.16,5.85,5.85,-1.93,-1.93,1.93,1.71,1.07,7.78,7.78,7.78
24.40,5.89,5.89,-1.89,-1.89,1.89,1.69,1.10,7.78,7.78,7.78
24.65,5.92,5.92,-1.86,-1.86,1.86,1.68,1.13,7.78,7.78,7.78
24.89,5.95,5.96,-1.82,-1.82,1.82,1.66,1.16,7.77,7.78,7.78
25.14,5.99,5.99,-1.78,-1.79,1.79,1.65,1.19,7.78,7.77,7.77
25.39,6.02,6.02,-1.75,-1.75,1.75,1.63,1.22,7.77,7.77,7.77
25.65,6.05,6.05,-1.72,-1.72,1.72,1.62,1.26,7.77,7.77,7.77
25.91,6.09,6.09,-1.68,-1.68,1.68,1.60,1.29,7.77,7.77,7.77
26.16,6.12,6.12,-1.65,-1.65,1.65,1.58,1.32,7.77,7.77,7.77
26.43,6.15,6.15,-1.62,-1.62,1.62,1.57,1.35,7.77,7.77,7.77
26.69,6.18,6.18,-1.59,-1.59,1.58,1.55,1.38,7.77,7.77,7.77
26.96,6.21,6.21,-1.55,-1.55,1.55,1.53,1.41,7.76,7.76,7.76
27.23,6.24,6.24,-1.52,-1.52,1.52,1.52,1.43,7.76,7.76,7.76
27.50,6.27,6.27,-1.49,-1.49,1.49,1.50,1.46,7.76,7.76,7.76
27.77,6.30,6.30,-1.46,-1.46,1.46,1.48,1.49,7.76,7.76,7.76
28.05,6.33,6.33,-1.43,-1.42,1.43,1.46,1.51,7.76,7.76,7.76
28.33,6.36,6.36,-1.39,-1.39,1.40,1.44,1.53,7.76,7.76,7.75
28.62,6.39,6.39,-1.36,-1.36,1.36,1.42,1.55,7.76,7.75,7.75
28.90,6.41,6.41,-1.34,-1.33,1.34,1.40,1.57,7.75,7.75,7.75
29.19,6.44,6.44,-1.31,-1.31,1.31,1.38,1.59,7.75,7.75,7.75
29.48,6.47,6.47,-1.27,-1.28,1.28,1.36,1.60,7.75,7.74,7.75
29.78,6.49,6.49,-1.25,-1.25,1.25,1.34,1.61,7.74,7.74,7.74
30.08,6.52,6.52,-1.22,-1.22,1.22,1.32,1.62,7.74,7.74,7.74
30.38,6.54,6.54,-1.20,-1.19,1.19,1.29,1.63,7.73,7.74,7.74
30.68,6.57,6.57,-1.16,-1.17,1.17,1.27,1.63,7.74,7.73,7.73
30.99,6.59,6.59,-1.14,-1.14,1.14,1.25,1.63,7.73,7.73,7.73
31.30,6.62,6.62,-1.11,-1.11,1.11,1.22,1.62,7.73,7.73,7.73
31.61,6.64,6.64,-1.08,-1.09,1.09,1.20,1.62,7.73,7.72,7.73
31.93,6.66,6.66,-1.06,-1.06,1.06,1.17,1.61,7.72,7.72,7.72
32.24,6.68,6.68,-1.04,-1.03,1.03,1.15,1.60,7.71,7.72,7.72
32.57,6.71,6.71,-1.00,-1.01,1.01,1.12,1.58,7.72,7.71,7.72
32.89,6.73,6.73,-0.98,-0.98,0.98,1.09,1.56,7.71,7.71,7.71
33.22,6.75,6.75,-0.96,-0.96,0.96,1.07,1.54,7.71,7.71,7.71
33.55,6.77,6.77,-0.93,-0.93,0.93,1.04,1.52,7.70,7.70,7.70
33.89,6.79,6.79,-0.91,-0.91,0.91,1.01,1.50,7.70,7.70,7.70
34.23,6.81,6.81,-0.88,-0.88,0.89,0.98,1.47,7.70,7.70,7.70
34.57,6.83,6.83,-0.86,-0.86,0.86,0.95,1.44,7.69,7.69,7.69
34.92,6.85,6.85,-0.84,-0.84,0.84,0.93,1.41,7.69,7.69,7.69
35.27,6.86,6.86,-0.82,-0.82,0.82,0.90,1.37,7.68,7.68,7.68
35.62,6.88,6.88,-0.80,-0.79,0.79,0.87,1.34,7.67,7.68,7.68
35.97,6.90,6.90,-0.77,-0.77,0.77,0.84,1.30,7.67,7.67,7.67
36.33,6.92,6.92,-0.75,-0.75,0.75,0.81,1.27,7.67,7.67,7.67
36.70,6.93,6.94,-0.73,-0.73,0.73,0.78,1.23,7.66,7.66,7.66
37.06,6.95,6.95,-0.70,-0.70,0.70,0.75,1.19,7.66,7.66,7.66
37.43,6.97,6.97,-0.68,-0.68,0.68,0.72,1.15,7.65,7.65,7.65
37.81,6.98,6.98,-0.66,-0.66,0.66,0.69,1.11,7.64,7.64,7.64
38.19,7.00,7.00,-0.64,-0.64,0.64,0.66,1.07,7.64,7.64,7.64
38.57,7.01,7.01,-0.62,-0.62,0.62,0.64,1.03,7.63,7.63,7.63
38.95,7.03,7.03,-0.59,-0.60,0.60,0.61,0.99,7.63,7.62,7.62
39.34,7.04,7.04,-0.58,-0.58,0.58,0.58,0.94,7.62,7.62,7.62
39.74,7.05,7.05,-0.56,-0.55,0.55,0.56,0.90,7.61,7.61,7.61
40.14,7.07,7.07,-0.53,-0.54,0.53,0.53,0.86,7.60,7.60,7.60
40.54,7.08,7.08,-0.51,-0.51,0.51,0.51,0.82,7.59,7.59,7.59
40.94,7.09,7.09,-0.50,-0.49,0.49,0.48,0.78,7.58,7.59,7.59
41.35,7.11,7.11,-0.47,-0.47,0.47,0.46,0.74,7.58,7.58,7.58
41.76,7.12,7.12,-0.45,-0.45,0.45,0.44,0.70,7.57,7.57,7.57
42.18,7.13,7.13,-0.43,-0.43,0.43,0.42,0.66,7.56,7.56,7.56
42.60,7.14,7.14,-0.41,-0.41,0.41,0.40,0.62,7.55,7.55,7.55
43.03,7.15,7.15,-0.39,-0.39,0.39,0.38,0.58,7.54,7.54,7.54
43.46,7.16,7.16,-0.37,-0.37,0.37,0.36,0.55,7.53,7.53,7.53
43.90,7.17,7.17,-0.35,-0.35,0.35,0.34,0.51,7.52,7.52,7.52
44.33,7.18,7.18,-0.33,-0.33,0.33,0.32,0.47,7.51,7.51,7.51
44.78,7.19,7.19,-0.31,-0.31,0.31,0.30,0.43,7.50,7.50,7.50
45.23,7.20,7.20,-0.29,-0.28,0.29,0.28,0.40,7.49,7.49,7.49
45.68,7.21,7.21,-0.26,-0.26,0.27,0.26,0.36,7.48,7.48,7.47
46.13,7.22,7.22,-0.24,-0.24,0.25,0.24,0.32,7.47,7.46,7.46
46.60,7.22,7.23,-0.23,-0.22,0.22,0.23,0.29,7.45,7.45,7.45
47.06,7.23,7.23,-0.20,-0.20,0.20,0.21,0.25,7.43,7.43,7.44
47.53,7.24,7.24,-0.18,-0.19,0.18,0.19,0.22,7.42,7.42,7.42
48.01,7.24,7.24,-0.17,-0.16,0.16,0.17,0.19,7.40,7.41,7.41
48.49,7.25,7.25,-0.14,-0.14,0.14,0.15,0.15,7.39,7.39,7.39
48.97,7.26,7.26,-0.12,-0.12,0.12,0.13,0.12,7.38,7.38,7.38
49.46,7.26,7.26,-0.10,-0.10,0.10,0.11,0.09,7.36,7.36,7.36
49.96,7.27,7.27,-0.07,-0.08,0.08,0.09,0.05,7.35,7.35,7.35
50.46,7.27,7.27,-0.06,-0.06,0.05,0.07,0.02,7.33,7.33,7.33
50.96,7.28,7.28,-0.03,-0.03,0.03,0.04,-0.01,7.31,7.31,7.31
51.47,7.28,7.28,-0.01,-0.01,0.01,0.02,-0.04,7.29,7.29,7.29
51.99,7.29,7.29,0.02,0.01,-0.01,-0.00,-0.07,7.28,7.27,7.27
52.51,7.29,7.29,0.04,0.04,-0.04,-0.03,-0.11,7.25,7.25,7.25
53.03,7.29,7.29,0.06,0.06,-0.06,-0.05,-0.14,7.23,7.24,7.23
53.56,7.30,7.30,0.09,0.08,-0.08,-0.07,-0.17,7.22,7.21,7.21
54.10,7.30,7.30,0.11,0.11,-0.11,-0.10,-0.20,7.19,7.19,7.19
54.64,7.30,7.30,0.13,0.13,-0.13,-0.12,-0.23,7.17,7.17,7.17
55.18,7.30,7.30,0.15,0.16,-0.16,-0.15,-0.26,7.14,7.15,7.15
55.74,7.31,7.31,0.19,0.18,-0.18,-0.17,-0.29,7.13,7.13,7.12
56.29,7.31,7.31,0.21,0.21,-0.21,-0.20,-0.32,7.10,7.10,7.10
56.86,7.31,7.31,0.23,0.24,-0.23,-0.23,-0.35,7.08,7.08,7.08
57.42,7.31,7.31,0.26,0.26,-0.26,-0.26,-0.38,7.05,7.05,7.05
58.00,7.31,7.31,0.29,0.29,-0.29,-0.28,-0.41,7.02,7.02,7.02
58.58,7.31,7.31,0.31,0.31,-0.31,-0.31,-0.44,7.00,7.00,7.00
59.16,7.31,7.31,0.34,0.34,-0.34,-0.34,-0.47,6.97,6.97,6.97
59.76,7.31,7.31,0.37,0.37,-0.37,-0.37,-0.50,6.94,6.94,6.94
60.35,7.31,7.31,0.40,0.40,-0.40,-0.40,-0.53,6.91,6.91,6.91
60.96,7.31,7.31,0.43,0.43,-0.43,-0.43,-0.56,6.88,6.88,6.88
61.57,7.31,7.31,0.46,0.46,-0.46,-0.46,-0.59,6.85,6.85,6.85
62.18,7.31,7.31,0.50,0.50,-0.49,-0.49,-0.62,6.82,6.82,6.82
62.80,7.31,7.31,0.53,0.53,-0.53,-0.52,-0.65,6.78,6.78,6.78
63.43,7.31,7.31,0.56,0.56,-0.56,-0.55,-0.68,6.75,6.75,6.75
64.07,7.30,7.30,0.59,0.59,-0.59,-0.59,-0.71,6.71,6.71,6.71
64.71,7.30,7.30,0.62,0.63,-0.63,-0.62,-0.74,6.67,6.68,6.68
65.35,7.30,7.30,0.66,0.66,-0.66,-0.65,-0.77,6.64,6.64,6.64
66.01,7.30,7.30,0.70,0.70,-0.70,-0.69,-0.81,6.61,6.60,6.60
66.67,7.29,7.29,0.73,0.73,-0.73,-0.72,-0.84,6.56,6.56,6.56
67.33,7.29,7.29,0.77,0.77,-0.77,-0.76,-0.87,6.52,6.52,6.52
68.01,7.28,7.28,0.80,0.80,-0.80,-0.79,-0.90,6.48,6.48,6.48
68.69,7.28,7.28,0.84,0.84,-0.84,-0.83,-0.93,6.44,6.44,6.44
69.37,7.28,7.28,0.88,0.88,-0.88,-0.87,-0.97,6.40,6.40,6.40
70.07,7.27,7.27,0.92,0.92,-0.92,-0.91,-1.00,6.35,6.35,6.35
70.77,7.26,7.26,0.95,0.96,-0.96,-0.95,-1.04,6.30,6.31,6.31
71.48,7.26,7.26,1.00,1.00,-1.00,-0.99,-1.07,6.26,6.26,6.26
72.19,7.25,7.25,1.04,1.04,-1.04,-1.03,-1.11,6.21,6.21,6.21
72.91,7.25,7.25,1.08,1.08,-1.08,-1.07,-1.14,6.17,6.17,6.17
73.64,7.24,7.24,1.12,1.12,-1.12,-1.12,-1.18,6.12,6.12,6.12
74.38,7.23,7.23,1.16,1.17,-1.17,-1.16,-1.22,6.06,6.07,6.07
75.12,7.23,7.23,1.22,1.21,-1.21,-1.21,-1.26,6.02,6.02,6.01
75.87,7.22,7.22,1.26,1.26,-1.26,-1.25,-1.30,5.96,5.96,5.96
76.63,7.21,7.21,1.30,1.30,-1.30,-1.30,-1.34,5.91,5.91,5.91
77.40,7.20,7.20,1.35,1.35,-1.35,-1.35,-1.38,5.85,5.85,5.85
78.17,7.20,7.20,1.40,1.40,-1.40,-1.40,-1.43,5.80,5.80,5.80
78.95,7.19,7.19,1.45,1.45,-1.45,-1.45,-1.47,5.75,5.74,5.74
79.74,7.18,7.18,1.49,1.50,-1.49,-1.50,-1.52,5.69,5.69,5.69
80.54,7.17,7.17,1.54,1.54,-1.54,-1.56,-1.57,5.63,5.63,5.63
81.35,7.16,7.16,1.59,1.59,-1.59,-1.61,-1.61,5.57,5.57,5.57
82.16,7.15,7.15,1.64,1.64,-1.64,-1.66,-1.66,5.51,5.51,5.51
82.98,7.14,7.14,1.69,1.69,-1.69,-1.72,-1.72,5.45,5.45,5.45
83.81,7.13,7.13,1.75,1.75,-1.75,-1.77,-1.77,5.38,5.38,5.39
84.65,7.12,7.12,1.80,1.80,-1.80,-1.83,-1.82,5.32,5.32,5.32
85.50,7.11,7.11,1.85,1.85,-1.85,-1.89,-1.88,5.26,5.26,5.26
86.35,7.10,7.10,1.91,1.91,-1.91,-1.94,-1.94,5.20,5.20,5.19
87.22,7.09,7.09,1.96,1.96,-1.96,-2.00,-2.00,5.13,5.13,5.13
88.09,7.08,7.08,2.02,2.01,-2.01,-2.05,-2.06,5.07,5.06,5.06
88.97,7.06,7.07,2.06,2.07,-2.07,-2.11,-2.12,4.99,5.00,5.00
89.86,7.05,7.05,2.12,2.12,-2.12,-2.17,-2.18,4.93,4.93,4.93
90.76,7.04,7.04,2.18,2.17,-2.18,-2.22,-2.25,4.86,4.86,4.86
91.66,7.02,7.02,2.23,2.23,-2.23,-2.28,-2.32,4.79,4.79,4.79
92.58,7.01,7.01,2.29,2.29,-2.29,-2.34,-2.38,4.72,4.72,4.72
93.51,7.00,7.00,2.35,2.34,-2.34,-2.39,-2.45,4.66,4.65,4.65
94.44,6.98,6.98,2.40,2.40,-2.40,-2.45,-2.53,4.58,4.58,4.58
95.39,6.97,6.97,2.46,2.46,-2.46,-2.51,-2.60,4.51,4.51,4.51
96.34,6.96,6.96,2.52,2.52,-2.52,-2.56,-2.67,4.44,4.44,4.44
97.30,6.95,6.95,2.58,2.58,-2.58,-2.62,-2.75,4.38,4.37,4.37
98.28,6.93,6.93,2.63,2.64,-2.63,-2.67,-2.83,4.30,4.30,4.30
99.26,6.92,6.92,2.69,2.69,-2.69,-2.73,-2.90,4.23,4.23,4.23
100.25,6.90,6.90,2.75,2.75,-2.75,-2.78,-2.98,4.15,4.15,4.15
101.25,6.88,6.88,2.80,2.80,-2.80,-2.83,-3.06,4.08,4.08,4.08
102.27,6.86,6.86,2.85,2.86,-2.86,-2.89,-3.14,4.00,4.01,4.01
103.29,6.85,6.85,2.92,2.91,-2.91,-2.94,-3.22,3.94,3.93,3.94
104.32,6.83,6.83,2.97,2.97,-2.97,-2.99,-3.30,3.86,3.86,3.86
105.37,6.81,6.81,3.02,3.03,-3.03,-3.04,-3.38,3.78,3.79,3.79
106.42,6.80,6.80,3.08,3.08,-3.08,-3.10,-3.46,3.72,3.71,3.72
107.48,6.78,6.78,3.14,3.14,-3.14,-3.15,-3.54,3.64,3.64,3.64
108.56,6.76,6.76,3.19,3.19,-3.19,-3.20,-3.61,3.57,3.57,3.57
109.64,6.75,6.75,3.25,3.25,-3.25,-3.25,-3.69,3.50,3.50,3.50
110.74,6.73,6.73,3.31,3.30,-3.30,-3.30,-3.76,3.43,3.43,3.42
111.85,6.71,6.71,3.36,3.36,-3.35,-3.34,-3.83,3.36,3.36,3.35
112.97,6.68,6.68,3.40,3.40,-3.40,-3.39,-3.90,3.28,3.28,3.28
114.10,6.66,6.66,3.45,3.45,-3.46,-3.44,-3.97,3.21,3.21,3.21
115.24,6.64,6.64,3.50,3.50,-3.51,-3.48,-4.03,3.14,3.13,3.14
116.39,6.62,6.62,3.55,3.55,-3.55,-3.53,-4.09,3.07,3.07,3.07
117.55,6.60,6.60,3.60,3.60,-3.60,-3.57,-4.14,3.00,3.00,3.00
118.73,6.58,6.58,3.65,3.65,-3.65,-3.62,-4.19,2.93,2.93,2.93
119.92,6.56,6.56,3.70,3.70,-3.70,-3.66,-4.23,2.86,2.86,2.86
121.12,6.54,6.54,3.75,3.75,-3.75,-3.70,-4.27,2.79,2.79,2.79
122.33,6.52,6.52,3.80,3.80,-3.80,-3.75,-4.31,2.72,2.72,2.72
123.55,6.50,6.50,3.85,3.85,-3.85,-3.79,-4.34,2.65,2.65,2.65
124.79,6.48,6.48,3.90,3.89,-3.89,-3.83,-4.36,2.59,2.59,2.59
126.03,6.46,6.46,3.94,3.94,-3.94,-3.86,-4.38,2.52,2.52,2.52
127.29,6.43,6.43,3.98,3.98,-3.98,-3.90,-4.40,2.45,2.45,2.45
128.57,6.41,6.41,4.02,4.02,-4.02,-3.94,-4.41,2.39,2.39,2.39
129.85,6.39,6.39,4.07,4.06,-4.06,-3.98,-4.41,2.33,2.32,2.33
131.15,6.36,6.36,4.10,4.10,-4.10,-4.01,-4.41,2.26,2.26,2.26
132.46,6.34,6.34,4.14,4.14,-4.14,-4.04,-4.40,2.20,2.20,2.20
133.79,6.32,6.32,4.18,4.18,-4.18,-4.08,-4.39,2.14,2.14,2.14
135.12,6.29,6.29,4.21,4.22,-4.21,-4.11,-4.38,2.08,2.08,2.08
136.48,6.27,6.27,4.25,4.25,-4.25,-4.14,-4.36,2.02,2.02,2.02
137.84,6.24,6.24,4.28,4.28,-4.28,-4.17,-4.34,1.96,1.96,1.96
139.22,6.22,6.22,4.32,4.32,-4.32,-4.20,-4.32,1.90,1.90,1.90
140.61,6.19,6.19,4.34,4.35,-4.35,-4.23,-4.29,1.84,1.85,1.85
142.02,6.17,6.17,4.38,4.38,-4.38,-4.26,-4.27,1.79,1.79,1.79
143.44,6.14,6.14,4.40,4.40,-4.40,-4.28,-4.24,1.74,1.74,1.74
144.87,6.11,6.11,4.43,4.43,-4.43,-4.31,-4.21,1.68,1.68,1.68
146.32,6.09,6.09,4.46,4.46,-4.46,-4.33,-4.18,1.63,1.63,1.63
147.78,6.06,6.06,4.48,4.48,-4.48,-4.35,-4.15,1.58,1.58,1.58
149.26,6.03,6.03,4.50,4.50,-4.50,-4.38,-4.11,1.53,1.53,1.53
150.75,6.00,6.00,4.52,4.52,-4.53,-4.40,-4.08,1.48,1.48,1.48
152.26,5.97,5.97,4.54,4.54,-4.55,-4.42,-4.06,1.43,1.43,1.43
153.78,5.95,5.95,4.57,4.57,-4.56,-4.44,-4.03,1.39,1.38,1.38
155.32,5.92,5.92,4.59,4.58,-4.58,-4.45,-4.00,1.34,1.34,1.34
156.88,5.89,5.89,4.60,4.60,-4.60,-4.47,-3.97,1.29,1.29,1.29
158.44,5.86,5.86,4.61,4.62,-4.62,-4.48,-3.95,1.24,1.24,1.25
160.03,5.83,5.83,4.63,4.63,-4.63,-4.50,-3.93,1.20,1.20,1.20
161.63,5.80,5.80,4.65,4.65,-4.65,-4.51,-3.91,1.15,1.15,1.15
163.24,5.77,5.77,4.66,4.66,-4.66,-4.53,-3.89,1.11,1.11,1.11
164.88,5.74,5.74,4.67,4.67,-4.67,-4.54,-3.88,1.07,1.07,1.07
166.53,5.71,5.71,4.68,4.68,-4.68,-4.55,-3.87,1.03,1.03,1.03
168.19,5.68,5.68,4.69,4.69,-4.69,-4.56,-3.86,0.99,0.99,0.99
169.87,5.65,5.65,4.70,4.70,-4.70,-4.56,-3.85,0.95,0.95,0.95
171.57,5.62,5.62,4.70,4.70,-4.70,-4.57,-3.85,0.92,0.92,0.92
173.29,5.59,5.59,4.71,4.71,-4.71,-4.58,-3.85,0.89,0.88,0.88
175.02,5.55,5.55,4.70,4.71,-4.71,-4.58,-3.85,0.84,0.85,0.85
176.77,5.52,5.52,4.71,4.71,-4.71,-4.59,-3.85,0.81,0.81,0.81
178.54,5.49,5.49,4.71,4.71,-4.71,-4.59,-3.86,0.78,0.78,0.78
180.32,5.45,5.45,4.70,4.71,-4.71,-4.59,-3.87,0.74,0.75,0.75
182.13,5.42,5.42,4.70,4.70,-4.70,-4.59,-3.89,0.72,0.72,0.72
183.95,5.39,5.39,4.70,4.70,-4.70,-4.59,-3.90,0.69,0.69,0.69
185.79,5.35,5.35,4.69,4.69,-4.69,-4.59,-3.93,0.66,0.66,0.66
187.65,5.32,5.32,4.69,4.69,-4.69,-4.59,-3.95,0.63,0.63,0.63
189.52,5.28,5.28,4.68,4.68,-4.68,-4.59,-3.98,0.60,0.60,0.60
191.42,5.25,5.25,4.67,4.67,-4.67,-4.58,-4.00,0.58,0.58,0.58
193.33,5.21,5.21,4.66,4.66,-4.66,-4.58,-4.03,0.55,0.55,0.55
195.27,5.18,5.18,4.66,4.65,-4.65,-4.57,-4.07,0.53,0.53,0.53
197.22,5.14,5.14,4.64,4.64,-4.64,-4.56,-4.10,0.50,0.50,0.50
199.19,5.10,5.10,4.62,4.63,-4.63,-4.56,-4.14,0.47,0.48,0.48
201.18,5.07,5.07,4.62,4.61,-4.61,-4.55,-4.18,0.46,0.46,0.45
203.19,5.03,5.03,4.60,4.60,-4.60,-4.54,-4.22,0.43,0.43,0.43
205.23,4.99,4.99,4.58,4.58,-4.58,-4.53,-4.26,0.41,0.41,0.41
207.28,4.95,4.95,4.56,4.56,-4.56,-4.52,-4.30,0.39,0.39,0.39
209.35,4.91,4.91,4.54,4.54,-4.55,-4.50,-4.35,0.37,0.37,0.37
211.44,4.88,4.88,4.53,4.53,-4.53,-4.49,-4.39,0.35,0.35,0.35
213.56,4.84,4.84,4.51,4.51,-4.51,-4.48,-4.43,0.33,0.33,0.33
215.69,4.80,4.80,4.49,4.49,-4.49,-4.46,-4.48,0.32,0.32,0.31
217.85,4.76,4.76,4.46,4.46,-4.46,-4.45,-4.52,0.30,0.30,0.30
220.03,4.72,4.72,4.44,4.44,-4.44,-4.43,-4.56,0.28,0.28,0.28
222.23,4.68,4.68,4.42,4.42,-4.42,-4.41,-4.60,0.26,0.26,0.26
224.45,4.64,4.64,4.39,4.39,-4.39,-4.39,-4.64,0.25,0.25,0.25
226.70,4.60,4.60,4.37,4.37,-4.37,-4.37,-4.67,0.23,0.23,0.23
228.96,4.56,4.56,4.34,4.35,-4.35,-4.35,-4.70,0.21,0.21,0.22
231.25,4.53,4.53,4.33,4.33,-4.33,-4.33,-4.73,0.20,0.20,0.20
233.57,4.49,4.49,4.30,4.31,-4.31,-4.31,-4.75,0.18,0.18,0.19
235.90,4.46,4.46,4.30,4.29,-4.30,-4.29,-4.76,0.16,0.17,0.16
238.26,4.43,4.43,4.28,4.28,-4.28,-4.27,-4.78,0.15,0.15,0.15
240.64,4.41,4.41,4.27,4.27,-4.27,-4.24,-4.78,0.14,0.14,0.14
243.05,4.38,4.38,4.25,4.25,-4.25,-4.22,-4.79,0.13,0.13,0.13
245.48,4.35,4.36,4.24,4.24,-4.24,-4.19,-4.78,0.11,0.12,0.11
247.93,4.33,4.33,4.23,4.22,-4.22,-4.17,-4.77,0.11,0.10,0.10
250.41,4.30,4.30,4.21,4.21,-4.20,-4.14,-4.75,0.10,0.10,0.09
252.92,4.26,4.27,4.18,4.18,-4.18,-4.11,-4.73,0.08,0.08,0.08
255.45,4.23,4.23,4.16,4.16,-4.16,-4.08,-4.70,0.07,0.07,0.07
258.00,4.19,4.19,4.13,4.13,-4.13,-4.05,-4.67,0.06,0.06,0.06
260.58,4.15,4.15,4.10,4.10,-4.10,-4.02,-4.63,0.05,0.05,0.05
263.19,4.11,4.11,4.07,4.07,-4.07,-3.99,-4.58,0.04,0.04,0.04
265.82,4.07,4.07,4.04,4.04,-4.04,-3.96,-4.53,0.03,0.03,0.03
268.48,4.03,4.03,4.01,4.00,-4.00,-3.93,-4.47,0.03,0.02,0.03
271.16,3.98,3.98,3.96,3.97,-3.97,-3.90,-4.41,0.01,0.01,0.02
273.87,3.94,3.94,3.93,3.93,-3.93,-3.87,-4.34,0.01,0.01,0.01
276.61,3.90,3.90,3.90,3.90,-3.90,-3.83,-4.27,0.00,0.00,0.00
279.38,3.86,3.86,3.87,3.86,-3.86,-3.80,-4.19,0.00,-0.00,-0.01
282.17,3.81,3.81,3.82,3.82,-3.82,-3.76,-4.12,-0.01,-0.01,-0.01
284.99,3.77,3.77,3.78,3.78,-3.78,-3.73,-4.04,-0.01,-0.01,-0.01
287.84,3.72,3.72,3.73,3.73,-3.74,-3.69,-3.95,-0.02,-0.01,-0.01
290.72,3.68,3.68,3.69,3.69,-3.69,-3.65,-3.87,-0.01,-0.01,-0.01
293.63,3.64,3.64,3.66,3.65,-3.65,-3.62,-3.78,-0.01,-0.01,-0.02
296.57,3.59,3.59,3.61,3.61,-3.61,-3.58,-3.70,-0.02,-0.01,-0.01
299.53,3.55,3.55,3.56,3.56,-3.56,-3.54,-3.61,-0.01,-0.01,-0.01
302.53,3.50,3.50,3.52,3.52,-3.52,-3.50,-3.52,-0.02,-0.02,-0.02
305.55,3.46,3.46,3.47,3.47,-3.47,-3.46,-3.43,-0.01,-0.01,-0.01
308.61,3.41,3.41,3.43,3.43,-3.43,-3.42,-3.35,-0.02,-0.02,-0.02
311.69,3.37,3.37,3.38,3.38,-3.38,-3.38,-3.26,-0.01,-0.01,-0.01
314.81,3.32,3.32,3.34,3.34,-3.34,-3.34,-3.17,-0.02,-0.01,-0.02
317.96,3.28,3.28,3.29,3.29,-3.29,-3.30,-3.09,-0.01,-0.01,-0.01
321.14,3.23,3.23,3.25,3.25,-3.24,-3.25,-3.00,-0.01,-0.01,-0.02
324.35,3.19,3.19,3.20,3.20,-3.20,-3.21,-2.92,-0.01,-0.01,-0.01
327.59,3.14,3.14,3.14,3.15,-3.15,-3.17,-2.83,-0.01,-0.01,-0.00
330.87,3.09,3.09,3.10,3.10,-3.10,-3.12,-2.75,-0.01,-0.01,-0.01
334.18,3.05,3.05,3.05,3.05,-3.05,-3.08,-2.67,-0.00,-0.00,-0.00
337.52,3.00,3.00,3.01,3.01,-3.00,-3.03,-2.60,-0.00,0.00,-0.00
340.90,2.96,2.96,2.96,2.96,-2.95,-2.99,-2.52,0.01,0.01,0.00
344.30,2.91,2.91,2.90,2.90,-2.90,-2.94,-2.44,0.01,0.01,0.01
347.75,2.86,2.86,2.85,2.85,-2.85,-2.89,-2.37,0.01,0.01,0.01
351.23,2.81,2.81,2.80,2.80,-2.80,-2.85,-2.30,0.01,0.01,0.01
354.74,2.77,2.77,2.74,2.74,-2.75,-2.80,-2.23,0.02,0.02,0.03
358.28,2.72,2.72,2.70,2.69,-2.69,-2.75,-2.16,0.03,0.03,0.03
361.87,2.67,2.67,2.64,2.64,-2.64,-2.70,-2.10,0.03,0.03,0.03
365.49,2.63,2.63,2.59,2.59,-2.59,-2.65,-2.03,0.04,0.04,0.04
369.14,2.58,2.58,2.54,2.54,-2.54,-2.60,-1.97,0.05,0.04,0.04
372.83,2.53,2.53,2.48,2.48,-2.48,-2.55,-1.91,0.05,0.05,0.05
376.56,2.48,2.48,2.43,2.43,-2.43,-2.50,-1.85,0.05,0.05,0.05
380.33,2.43,2.43,2.37,2.37,-2.38,-2.45,-1.79,0.06,0.06,0.06
384.13,2.38,2.38,2.32,2.32,-2.32,-2.40,-1.74,0.06,0.06,0.06
387.97,2.34,2.34,2.28,2.27,-2.27,-2.34,-1.68,0.07,0.07,0.07
391.85,2.29,2.29,2.21,2.21,-2.21,-2.29,-1.63,0.08,0.08,0.08
395.77,2.24,2.24,2.16,2.16,-2.16,-2.24,-1.58,0.08,0.08,0.08
399.73,2.19,2.19,2.10,2.10,-2.10,-2.18,-1.53,0.09,0.09,0.09
403.72,2.14,2.14,2.04,2.05,-2.05,-2.13,-1.48,0.09,0.09,0.10
407.76,2.09,2.09,2.00,1.99,-1.99,-2.07,-1.43,0.10,0.10,0.10
411.84,2.04,2.04,1.94,1.94,-1.94,-2.02,-1.38,0.10,0.10,0.10
415.96,1.99,1.99,1.88,1.88,-1.88,-1.96,-1.34,0.11,0.11,0.11
420.12,1.94,1.94,1.83,1.83,-1.83,-1.90,-1.29,0.11,0.11,0.11
424.32,1.89,1.89,1.77,1.77,-1.77,-1.85,-1.25,0.12,0.12,0.12
428.56,1.84,1.84,1.71,1.71,-1.72,-1.79,-1.21,0.12,0.12,0.13
432.85,1.79,1.79,1.65,1.66,-1.66,-1.73,-1.17,0.13,0.13,0.14
437.18,1.74,1.74,1.61,1.60,-1.60,-1.67,-1.13,0.14,0.14,0.13
441.55,1.69,1.69,1.55,1.55,-1.54,-1.61,-1.09,0.15,0.15,0.14
445.96,1.64,1.64,1.49,1.48,-1.48,-1.55,-1.05,0.16,0.16,0.15
450.42,1.58,1.58,1.41,1.42,-1.42,-1.49,-1.01,0.16,0.17,0.17
454.93,1.53,1.53,1.35,1.35,-1.36,-1.43,-0.98,0.17,0.17,0.18
459.48,1.48,1.48,1.29,1.29,-1.29,-1.37,-0.94,0.19,0.18,0.19
464.07,1.42,1.42,1.23,1.23,-1.23,-1.31,-0.90,0.19,0.19,0.19
468.71,1.36,1.36,1.16,1.17,-1.17,-1.25,-0.87,0.20,0.20,0.20
473.40,1.31,1.31,1.11,1.10,-1.10,-1.19,-0.83,0.21,0.21,0.20
478.13,1.25,1.25,1.04,1.04,-1.03,-1.12,-0.80,0.22,0.22,0.21
482.91,1.19,1.19,0.97,0.97,-0.97,-1.06,-0.77,0.22,0.22,0.22
487.74,1.13,1.13,0.90,0.90,-0.90,-1.00,-0.73,0.23,0.23,0.23
492.62,1.07,1.07,0.83,0.83,-0.83,-0.93,-0.70,0.24,0.24,0.24
497.55,1.01,1.01,0.76,0.76,-0.76,-0.87,-0.67,0.25,0.25,0.25
502.52,0.96,0.96,0.70,0.69,-0.69,-0.81,-0.63,0.27,0.26,0.26
507.55,0.90,0.90,0.62,0.62,-0.63,-0.74,-0.60,0.27,0.27,0.28
512.62,0.84,0.84,0.55,0.56,-0.56,-0.68,-0.57,0.28,0.28,0.29
517.75,0.79,0.79,0.49,0.50,-0.50,-0.61,-0.54,0.29,0.29,0.30
522.93,0.75,0.75,0.44,0.44,-0.44,-0.54,-0.51,0.31,0.30,0.31
528.16,0.70,0.70,0.39,0.39,-0.39,-0.48,-0.48,0.32,0.31,0.32
533.44,0.65,0.65,0.33,0.33,-0.33,-0.41,-0.44,0.32,0.32,0.32
538.77,0.61,0.61,0.29,0.28,-0.28,-0.35,-0.41,0.33,0.33,0.32
544.16,0.57,0.57,0.23,0.23,-0.23,-0.28,-0.38,0.34,0.34,0.34
549.60,0.53,0.53,0.18,0.18,-0.18,-0.21,-0.35,0.35,0.36,0.35
