frequency,raw,smoothed,error,error_smoothed,equalization,parametric_eq,fixed_band_eq,equalized_raw,equalized_smoothed,target
20.00,5.49,5.49,-1.24,-1.24,1.25,0.20,0.04,6.73,6.73,6.73
20.20,5.53,5.53,-1.20,-1.20,1.20,0.20,0.04,6.73,6.73,6.73
20.40,5.57,5.57,-1.16,-1.16,1.16,0.20,0.04,6.73,6.73,6.73
20.61,5.61,5.61,-1.12,-1.12,1.12,0.20,0.04,6.73,6.73,6.73
20.81,5.65,5.65,-1.08,-1.08,1.08,0.19,0.04,6.73,6.72,6.73
21.02,5.69,5.69,-1.04,-1.04,1.04,0.19,0.05,6.72,6.72,6.73
21.23,5.73,5.73,-1.00,-1.00,0.99,0.19,0.05,6.72,6.72,6.73
21.44,5.78,5.77,-0.95,-0.95,0.95,0.18,0.05,6.73,6.73,6.73
21.66,5.82,5.82,-0.91,-0.91,0.91,0.18,0.05,6.73,6.73,6.72
21.87,5.86,5.86,-0.87,-0.87,0.87,0.18,0.05,6.72,6.73,6.72
22.09,5.90,5.90,-0.83,-0.83,0.83,0.17,0.06,6.72,6.72,6.72
22.31,5.94,5.94,-0.79,-0.79,0.78,0.17,0.06,6.72,6.72,6.72
22.54,5.98,5.98,-0.75,-0.74,0.74,0.17,0.06,6.72,6.72,6.72
22.76,6.02,6.02,-0.70,-0.70,0.70,0.16,0.06,6.72,6.72,6.72
22.99,6.06,6.05,-0.66,-0.67,0.67,0.16,0.06,6.72,6.72,6.72
23.22,6.09,6.09,-0.63,-0.63,0.63,0.16,0.07,6.72,6.72,6.72
23.45,6.13,6.12,-0.59,-0.59,0.60,0.15,0.07,6.72,6.72,6.72
23.69,6.16,6.16,-0.56,-0.56,0.56,0.15,0.07,6.72,6.72,6.72
23.92,6.19,6.19,-0.53,-0.53,0.53,0.14,0.07,6.71,6.72,6.71
24.16,6.22,6.22,-0.50,-0.50,0.49,0.14,0.08,6.71,6.71,6.71
24.40,6.25,6.25,-0.47,-0.47,0.46,0.14,0.08,6.71,6.71,6.71
24.65,6.28,6.28,-0.44,-0.43,0.43,0.13,0.08,6.70,6.71,6.71
24.89,6.32,6.31,-0.39,-0.40,0.40,0.13,0.08,6.71,6.71,6.71
25.14,6.35,6.35,-0.36,-0.36,0.36,0.12,0.09,6.71,6.71,6.71
25.39,6.38,6.38,-0.33,-0.33,0.33,0.12,0.09,6.71,6.71,6.71
25.65,6.41,6.41,-0.30,-0.30,0.30,0.11,0.09,6.71,6.71,6.71
25.91,6.44,6.43,-0.27,-0.27,0.27,0.11,0.09,6.71,6.71,6.70
26.16,6.46,6.46,-0.25,-0.24,0.24,0.10,0.10,6.70,6.70,6.70
26.43,6.49,6.48,-0.22,-0.22,0.22,0.10,0.10,6.71,6.70,6.70
26.69,6.51,6.51,-0.19,-0.19,0.20,0.09,0.10,6.70,6.70,6.70
26.96,6.53,6.53,-0.17,-0.17,0.17,0.08,0.10,6.70,6.70,6.70
27.23,6.55,6.55,-0.15,-0.15,0.15,0.08,0.10,6.69,6.69,6.70
27.50,6.57,6.57,-0.13,-0.13,0.12,0.07,0.11,6.69,6.69,6.69
27.77,6.59,6.59,-0.11,-0.10,0.10,0.07,0.11,6.69,6.69,6.69
28.05,6.62,6.61,-0.07,-0.08,0.07,0.06,0.11,6.69,6.69,6.69
28.33,6.64,6.64,-0.05,-0.05,0.05,0.05,0.11,6.68,6.69,6.69
28.62,6.67,6.67,-0.02,-0.02,0.02,0.04,0.11,6.69,6.69,6.69
28.90,6.70,6.69,0.01,0.01,-0.01,0.04,0.11,6.69,6.68,6.68
29.19,6.72,6.72,0.03,0.04,-0.03,0.03,0.11,6.68,6.68,6.68
29.48,6.74,6.74,0.06,0.06,-0.06,0.02,0.11,6.68,6.68,6.68
29.78,6.77,6.76,0.09,0.09,-0.08,0.01,0.11,6.68,6.68,6.68
30.08,6.79,6.78,0.11,0.11,-0.11,0.01,0.11,6.68,6.68,6.67
30.38,6.80,6.80,0.13,0.13,-0.13,-0.00,0.11,6.67,6.67,6.67
30.68,6.82,6.81,0.15,0.15,-0.14,-0.01,0.11,6.67,6.67,6.67
30.99,6.83,6.83,0.16,0.16,-0.16,-0.02,0.10,6.66,6.66,6.67
31.30,6.84,6.84,0.17,0.17,-0.18,-0.03,0.10,6.66,6.66,6.66
31.61,6.85,6.85,0.19,0.19,-0.19,-0.04,0.10,6.66,6.66,6.66
31.93,6.86,6.86,0.20,0.20,-0.20,-0.05,0.10,6.66,6.66,6.66
32.24,6.87,6.87,0.21,0.21,-0.21,-0.06,0.09,6.65,6.65,6.65
32.57,6.88,6.87,0.23,0.22,-0.22,-0.07,0.09,6.65,6.65,6.65
32.89,6.88,6.88,0.23,0.23,-0.24,-0.08,0.08,6.64,6.64,6.65
33.22,6.89,6.89,0.24,0.25,-0.25,-0.09,0.08,6.64,6.64,6.64
33.55,6.90,6.90,0.26,0.26,-0.26,-0.10,0.07,6.64,6.64,6.64
33.89,6.91,6.91,0.27,0.27,-0.27,-0.11,0.07,6.63,6.63,6.63
34.23,6.92,6.91,0.29,0.28,-0.28,-0.13,0.06,6.63,6.63,6.63
34.57,6.92,6.92,0.29,0.30,-0.30,-0.14,0.06,6.62,6.62,6.62
34.92,6.93,6.93,0.31,0.31,-0.31,-0.15,0.05,6.62,6.62,6.62
35.27,6.94,6.93,0.32,0.32,-0.32,-0.16,0.04,6.62,6.61,6.62
35.62,6.94,6.94,0.33,0.33,-0.33,-0.17,0.04,6.61,6.61,6.61
35.97,6.95,6.94,0.34,0.34,-0.34,-0.18,0.03,6.61,6.61,6.61
36.33,6.95,6.95,0.35,0.35,-0.34,-0.20,0.02,6.60,6.60,6.60
36.70,6.95,6.95,0.35,0.35,-0.35,-0.21,0.02,6.60,6.60,6.59
37.06,6.95,6.95,0.36,0.36,-0.35,-0.22,0.01,6.59,6.59,6.59
37.43,6.95,6.94,0.36,0.36,-0.36,-0.23,0.00,6.59,6.59,6.58
37.81,6.94,6.94,0.36,0.36,-0.36,-0.24,-0.01,6.57,6.58,6.58
38.19,6.94,6.93,0.37,0.36,-0.36,-0.25,-0.02,6.57,6.57,6.57
38.57,6.93,6.93,0.36,0.36,-0.37,-0.26,-0.02,6.56,6.56,6.56
38.95,6.93,6.93,0.37,0.37,-0.37,-0.27,-0.03,6.55,6.55,6.56
39.34,6.93,6.93,0.38,0.37,-0.38,-0.28,-0.04,6.55,6.55,6.55
39.74,6.93,6.93,0.38,0.38,-0.38,-0.29,-0.05,6.54,6.54,6.54
40.14,6.93,6.93,0.39,0.39,-0.39,-0.29,-0.06,6.54,6.54,6.54
40.54,6.93,6.93,0.40,0.40,-0.39,-0.30,-0.07,6.53,6.53,6.53
40.94,6.93,6.92,0.41,0.40,-0.40,-0.31,-0.07,6.53,6.52,6.52
41.35,6.92,6.92,0.40,0.41,-0.40,-0.31,-0.08,6.51,6.51,6.51
41.76,6.91,6.91,0.40,0.40,-0.40,-0.32,-0.09,6.50,6.50,6.50
42.18,6.90,6.90,0.40,0.40,-0.41,-0.32,-0.10,6.49,6.49,6.49
42.60,6.89,6.89,0.40,0.40,-0.41,-0.32,-0.11,6.48,6.48,6.48
43.03,6.88,6.88,0.40,0.41,-0.41,-0.33,-0.12,6.47,6.47,6.47
43.46,6.88,6.87,0.41,0.41,-0.41,-0.33,-0.13,6.47,6.46,6.46
43.90,6.87,6.87,0.41,0.41,-0.41,-0.33,-0.14,6.46,6.46,6.45
44.33,6.86,6.86,0.41,0.41,-0.41,-0.34,-0.15,6.45,6.45,6.44
44.78,6.85,6.84,0.41,0.41,-0.41,-0.34,-0.16,6.44,6.43,6.43
45.23,6.83,6.83,0.41,0.41,-0.41,-0.34,-0.17,6.42,6.42,6.42
45.68,6.82,6.82,0.41,0.41,-0.41,-0.34,-0.18,6.41,6.41,6.41
46.13,6.81,6.80,0.41,0.41,-0.41,-0.34,-0.19,6.40,6.39,6.40
46.60,6.79,6.79,0.40,0.41,-0.41,-0.35,-0.20,6.38,6.38,6.38
47.06,6.78,6.78,0.41,0.41,-0.41,-0.35,-0.21,6.37,6.37,6.37
47.53,6.77,6.76,0.41,0.41,-0.41,-0.35,-0.22,6.36,6.36,6.36
48.01,6.75,6.75,0.40,0.41,-0.41,-0.35,-0.23,6.34,6.34,6.34
48.49,6.74,6.73,0.41,0.41,-0.40,-0.35,-0.24,6.33,6.33,6.33
48.97,6.72,6.72,0.40,0.40,-0.40,-0.36,-0.25,6.31,6.31,6.31
49.46,6.70,6.70,0.40,0.40,-0.40,-0.36,-0.26,6.29,6.29,6.30
49.96,6.68,6.68,0.40,0.40,-0.40,-0.36,-0.27,6.28,6.28,6.28
50.46,6.66,6.66,0.39,0.40,-0.40,-0.37,-0.28,6.26,6.26,6.26
50.96,6.65,6.64,0.40,0.40,-0.40,-0.37,-0.29,6.25,6.24,6.24
51.47,6.63,6.63,0.40,0.40,-0.40,-0.38,-0.30,6.23,6.23,6.23
51.99,6.61,6.61,0.40,0.40,-0.40,-0.38,-0.32,6.21,6.21,6.21
52.51,6.59,6.59,0.40,0.40,-0.40,-0.39,-0.33,6.19,6.19,6.19
53.03,6.57,6.57,0.40,0.40,-0.40,-0.39,-0.34,6.17,6.17,6.17
53.56,6.55,6.55,0.40,0.40,-0.40,-0.40,-0.35,6.15,6.15,6.15
54.10,6.53,6.53,0.40,0.40,-0.40,-0.40,-0.36,6.12,6.12,6.13
54.64,6.51,6.51,0.40,0.40,-0.40,-0.41,-0.37,6.10,6.10,6.10
55.18,6.49,6.49,0.40,0.40,-0.40,-0.42,-0.38,6.08,6.08,6.08
55.74,6.47,6.47,0.41,0.41,-0.41,-0.42,-0.39,6.06,6.06,6.06
56.29,6.45,6.44,0.41,0.41,-0.41,-0.43,-0.40,6.04,6.04,6.03
56.86,6.42,6.42,0.41,0.41,-0.41,-0.44,-0.41,6.01,6.01,6.01
57.42,6.40,6.39,0.41,0.41,-0.41,-0.45,-0.43,5.99,5.98,5.98
58.00,6.37,6.37,0.41,0.41,-0.41,-0.46,-0.44,5.96,5.96,5.96
58.58,6.34,6.34,0.41,0.41,-0.41,-0.47,-0.45,5.93,5.93,5.93
59.16,6.32,6.31,0.41,0.41,-0.41,-0.48,-0.46,5.91,5.90,5.90
59.76,6.29,6.29,0.41,0.41,-0.41,-0.48,-0.47,5.88,5.87,5.87
60.35,6.26,6.26,0.41,0.41,-0.41,-0.49,-0.48,5.84,5.84,5.84
60.96,6.23,6.23,0.41,0.41,-0.41,-0.50,-0.49,5.81,5.81,5.81
61.57,6.20,6.20,0.41,0.41,-0.42,-0.52,-0.50,5.78,5.78,5.78
62.18,6.17,6.17,0.42,0.42,-0.42,-0.53,-0.51,5.75,5.75,5.75
62.80,6.14,6.14,0.42,0.42,-0.42,-0.54,-0.52,5.72,5.72,5.72
63.43,6.11,6.11,0.42,0.43,-0.42,-0.55,-0.53,5.68,5.68,5.68
64.07,6.08,6.08,0.43,0.43,-0.43,-0.56,-0.54,5.65,5.65,5.65
64.71,6.05,6.04,0.44,0.43,-0.43,-0.57,-0.55,5.61,5.61,5.61
65.35,6.01,6.01,0.43,0.44,-0.44,-0.58,-0.56,5.57,5.57,5.57
66.01,5.98,5.98,0.44,0.44,-0.44,-0.60,-0.57,5.53,5.53,5.54
66.67,5.95,5.94,0.45,0.45,-0.45,-0.61,-0.58,5.50,5.49,5.50
67.33,5.91,5.91,0.45,0.45,-0.45,-0.62,-0.59,5.45,5.46,5.46
68.01,5.88,5.88,0.46,0.46,-0.46,-0.64,-0.60,5.42,5.42,5.42
68.69,5.85,5.84,0.47,0.47,-0.47,-0.65,-0.61,5.38,5.37,5.37
69.37,5.81,5.81,0.48,0.48,-0.48,-0.66,-0.62,5.33,5.33,5.33
70.07,5.78,5.77,0.49,0.49,-0.49,-0.68,-0.63,5.29,5.29,5.29
70.77,5.74,5.74,0.50,0.50,-0.50,-0.69,-0.64,5.24,5.24,5.24
71.48,5.71,5.70,0.51,0.51,-0.51,-0.71,-0.65,5.20,5.19,5.19
72.19,5.67,5.67,0.52,0.52,-0.52,-0.72,-0.66,5.14,5.15,5.15
72.91,5.64,5.63,0.54,0.53,-0.53,-0.74,-0.67,5.10,5.10,5.10
73.64,5.60,5.60,0.55,0.55,-0.55,-0.75,-0.68,5.05,5.05,5.05
74.38,5.57,5.56,0.57,0.56,-0.56,-0.77,-0.69,5.00,5.00,5.00
75.12,5.53,5.53,0.58,0.58,-0.58,-0.78,-0.71,4.95,4.95,4.95
75.87,5.49,5.49,0.59,0.59,-0.59,-0.80,-0.72,4.90,4.90,4.90
76.63,5.45,5.45,0.60,0.60,-0.60,-0.81,-0.73,4.84,4.84,4.84
77.40,5.41,5.41,0.62,0.62,-0.62,-0.83,-0.75,4.79,4.79,4.79
78.17,5.37,5.37,0.63,0.63,-0.63,-0.85,-0.76,4.73,4.73,4.73
78.95,5.33,5.33,0.65,0.65,-0.65,-0.86,-0.78,4.68,4.68,4.68
79.74,5.29,5.29,0.67,0.67,-0.67,-0.88,-0.79,4.62,4.62,4.62
80.54,5.25,5.25,0.68,0.68,-0.68,-0.90,-0.81,4.56,4.56,4.56
81.35,5.21,5.21,0.70,0.70,-0.70,-0.91,-0.83,4.50,4.50,4.50
82.16,5.17,5.17,0.72,0.72,-0.72,-0.93,-0.84,4.44,4.44,4.44
82.98,5.13,5.12,0.74,0.74,-0.74,-0.95,-0.86,4.38,4.38,4.38
83.81,5.08,5.08,0.76,0.76,-0.76,-0.96,-0.88,4.31,4.32,4.32
84.65,5.04,5.04,0.78,0.78,-0.78,-0.98,-0.90,4.25,4.25,4.26
85.50,5.00,5.00,0.80,0.80,-0.80,-1.00,-0.92,4.19,4.19,4.19
86.35,4.96,4.96,0.83,0.83,-0.83,-1.02,-0.94,4.13,4.13,4.13
87.22,4.92,4.91,0.85,0.85,-0.85,-1.03,-0.97,4.07,4.07,4.06
88.09,4.87,4.87,0.87,0.87,-0.87,-1.05,-0.99,4.00,4.00,4.00
88.97,4.83,4.82,0.90,0.89,-0.89,-1.07,-1.01,3.93,3.93,3.93
89.86,4.78,4.78,0.91,0.92,-0.92,-1.09,-1.04,3.86,3.86,3.86
90.76,4.74,4.74,0.94,0.94,-0.94,-1.11,-1.06,3.79,3.79,3.80
91.66,4.70,4.69,0.97,0.97,-0.97,-1.12,-1.09,3.73,3.73,3.73
92.58,4.66,4.65,1.00,1.00,-0.99,-1.14,-1.12,3.66,3.66,3.66
93.51,4.61,4.61,1.02,1.02,-1.02,-1.16,-1.14,3.59,3.59,3.59
94.44,4.57,4.56,1.05,1.05,-1.04,-1.18,-1.17,3.52,3.52,3.52
95.39,4.52,4.52,1.07,1.07,-1.07,-1.20,-1.20,3.45,3.45,3.45
96.34,4.47,4.47,1.09,1.09,-1.09,-1.21,-1.23,3.38,3.38,3.38
97.30,4.42,4.42,1.11,1.11,-1.11,-1.23,-1.26,3.30,3.30,3.30
98.28,4.37,4.37,1.13,1.13,-1.13,-1.25,-1.29,3.23,3.23,3.23
99.26,4.32,4.32,1.16,1.16,-1.16,-1.27,-1.32,3.16,3.16,3.16
100.25,4.27,4.27,1.18,1.18,-1.18,-1.28,-1.35,3.09,3.09,3.09
101.25,4.22,4.22,1.20,1.20,-1.20,-1.30,-1.38,3.01,3.01,3.01
102.27,4.17,4.17,1.22,1.23,-1.23,-1.32,-1.42,2.94,2.94,2.94
103.29,4.13,4.12,1.26,1.25,-1.26,-1.34,-1.45,2.87,2.87,2.87
104.32,4.08,4.08,1.28,1.28,-1.28,-1.35,-1.48,2.79,2.79,2.80
105.37,4.04,4.04,1.31,1.31,-1.31,-1.37,-1.51,2.72,2.73,2.72
106.42,4.00,3.99,1.35,1.34,-1.34,-1.39,-1.54,2.66,2.65,2.65
107.48,3.95,3.95,1.37,1.37,-1.37,-1.40,-1.57,2.58,2.58,2.58
108.56,3.90,3.90,1.39,1.39,-1.39,-1.42,-1.60,2.51,2.51,2.50
109.64,3.85,3.85,1.41,1.41,-1.42,-1.44,-1.63,2.43,2.43,2.43
110.74,3.80,3.80,1.44,1.44,-1.44,-1.45,-1.66,2.36,2.36,2.36
111.85,3.75,3.75,1.46,1.46,-1.46,-1.47,-1.69,2.28,2.28,2.29
112.97,3.70,3.70,1.48,1.48,-1.48,-1.48,-1.72,2.21,2.21,2.21
114.10,3.65,3.65,1.50,1.50,-1.50,-1.50,-1.74,2.14,2.14,2.14
115.24,3.60,3.60,1.52,1.52,-1.52,-1.51,-1.76,2.07,2.07,2.07
116.39,3.55,3.55,1.55,1.55,-1.54,-1.53,-1.79,2.00,2.00,2.00
117.55,3.50,3.50,1.57,1.57,-1.56,-1.54,-1.81,1.93,1.93,1.93
118.73,3.45,3.44,1.59,1.58,-1.58,-1.55,-1.82,1.86,1.86,1.86
119.92,3.39,3.39,1.60,1.60,-1.60,-1.57,-1.84,1.79,1.79,1.79
121.12,3.34,3.34,1.61,1.61,-1.62,-1.58,-1.85,1.72,1.72,1.72
122.33,3.29,3.29,1.63,1.63,-1.63,-1.59,-1.86,1.65,1.65,1.65
123.55,3.24,3.24,1.65,1.65,-1.65,-1.60,-1.87,1.59,1.59,1.59
124.79,3.19,3.19,1.67,1.67,-1.66,-1.62,-1.88,1.52,1.52,1.52
126.03,3.14,3.13,1.68,1.68,-1.68,-1.63,-1.88,1.46,1.46,1.45
127.29,3.08,3.08,1.69,1.69,-1.69,-1.64,-1.88,1.39,1.39,1.39
128.57,3.03,3.02,1.70,1.70,-1.70,-1.65,-1.88,1.32,1.32,1.32
129.85,2.97,2.97,1.71,1.71,-1.71,-1.66,-1.88,1.25,1.26,1.26
131.15,2.92,2.92,1.72,1.72,-1.72,-1.67,-1.87,1.20,1.20,1.20
132.46,2.87,2.86,1.73,1.73,-1.73,-1.67,-1.86,1.14,1.13,1.13
133.79,2.81,2.81,1.73,1.73,-1.73,-1.68,-1.85,1.07,1.07,1.07
135.12,2.75,2.75,1.73,1.74,-1.74,-1.69,-1.84,1.01,1.01,1.01
136.48,2.70,2.70,1.74,1.74,-1.74,-1.70,-1.83,0.95,0.95,0.95
137.84,2.65,2.64,1.75,1.75,-1.75,-1.70,-1.81,0.90,0.89,0.89
139.22,2.59,2.59,1.75,1.75,-1.75,-1.71,-1.80,0.83,0.84,0.84
140.61,2.54,2.53,1.76,1.75,-1.75,-1.71,-1.78,0.78,0.78,0.78
142.02,2.48,2.48,1.75,1.76,-1.76,-1.72,-1.76,0.72,0.72,0.72
143.44,2.43,2.43,1.76,1.76,-1.75,-1.72,-1.74,0.67,0.67,0.67
144.87,2.38,2.37,1.76,1.76,-1.75,-1.73,-1.72,0.62,0.62,0.62
146.32,2.32,2.32,1.75,1.75,-1.75,-1.73,-1.70,0.57,0.57,0.56
147.78,2.26,2.26,1.74,1.75,-1.74,-1.73,-1.68,0.51,0.51,0.51
149.26,2.20,2.20,1.73,1.74,-1.74,-1.73,-1.66,0.46,0.46,0.46
150.75,2.15,2.14,1.73,1.73,-1.73,-1.73,-1.64,0.42,0.41,0.41
152.26,2.09,2.09,1.72,1.72,-1.72,-1.73,-1.62,0.36,0.36,0.36
153.78,2.04,2.04,1.72,1.72,-1.72,-1.73,-1.60,0.32,0.32,0.32
155.32,1.99,1.99,1.72,1.72,-1.72,-1.73,-1.58,0.27,0.27,0.27
156.88,1.95,1.94,1.72,1.72,-1.73,-1.73,-1.56,0.22,0.22,0.22
158.44,1.91,1.90,1.73,1.72,-1.74,-1.73,-1.54,0.17,0.16,0.18
160.03,1.87,1.87,1.73,1.74,-1.76,-1.72,-1.52,0.11,0.12,0.14
161.63,1.86,1.86,1.77,1.77,-1.78,-1.72,-1.50,0.08,0.08,0.08
163.24,1.85,1.84,1.80,1.80,-1.80,-1.72,-1.48,0.05,0.04,0.04
164.88,1.84,1.83,1.83,1.83,-1.82,-1.71,-1.47,0.01,0.01,0.00
166.53,1.82,1.82,1.85,1.86,-1.84,-1.70,-1.45,-0.03,-0.03,-0.04
168.19,1.80,1.79,1.87,1.87,-1.86,-1.70,-1.44,-0.06,-0.07,-0.08
169.87,1.77,1.76,1.88,1.88,-1.87,-1.69,-1.42,-0.10,-0.11,-0.11
171.57,1.73,1.73,1.88,1.88,-1.87,-1.68,-1.41,-0.15,-0.15,-0.15
173.29,1.69,1.69,1.87,1.87,-1.87,-1.68,-1.40,-0.19,-0.18,-0.18
175.02,1.65,1.64,1.87,1.86,-1.86,-1.67,-1.39,-0.22,-0.22,-0.22
176.77,1.60,1.60,1.85,1.85,-1.85,-1.66,-1.38,-0.26,-0.26,-0.25
178.54,1.55,1.55,1.83,1.83,-1.84,-1.65,-1.38,-0.29,-0.29,-0.29
180.32,1.50,1.50,1.81,1.82,-1.82,-1.64,-1.37,-0.32,-0.32,-0.32
182.13,1.46,1.45,1.80,1.80,-1.80,-1.63,-1.36,-0.35,-0.35,-0.35
183.95,1.41,1.41,1.78,1.78,-1.78,-1.61,-1.36,-0.38,-0.38,-0.38
185.79,1.36,1.36,1.76,1.76,-1.76,-1.60,-1.36,-0.41,-0.41,-0.41
187.65,1.31,1.31,1.74,1.74,-1.74,-1.59,-1.35,-0.43,-0.43,-0.44
189.52,1.26,1.26,1.72,1.72,-1.72,-1.58,-1.35,-0.46,-0.46,-0.46
191.42,1.21,1.21,1.70,1.70,-1.70,-1.56,-1.35,-0.49,-0.49,-0.49
193.33,1.16,1.16,1.67,1.67,-1.67,-1.55,-1.35,-0.52,-0.52,-0.52
195.27,1.11,1.11,1.65,1.65,-1.65,-1.53,-1.35,-0.54,-0.54,-0.54
197.22,1.06,1.06,1.62,1.62,-1.62,-1.52,-1.36,-0.57,-0.57,-0.57
199.19,1.02,1.01,1.60,1.60,-1.60,-1.50,-1.36,-0.58,-0.59,-0.59
201.18,0.97,0.97,1.58,1.58,-1.57,-1.48,-1.36,-0.61,-0.61,-0.61
203.19,0.92,0.92,1.55,1.55,-1.55,-1.47,-1.36,-0.63,-0.63,-0.63
205.23,0.87,0.87,1.52,1.52,-1.52,-1.45,-1.37,-0.66,-0.66,-0.66
207.28,0.82,0.82,1.49,1.50,-1.50,-1.43,-1.37,-0.68,-0.68,-0.68
209.35,0.78,0.77,1.47,1.47,-1.47,-1.41,-1.38,-0.69,-0.70,-0.70
211.44,0.73,0.73,1.44,1.44,-1.44,-1.39,-1.38,-0.72,-0.72,-0.72
213.56,0.68,0.68,1.41,1.41,-1.41,-1.37,-1.39,-0.74,-0.73,-0.73
215.69,0.64,0.63,1.39,1.39,-1.39,-1.35,-1.39,-0.75,-0.75,-0.75
217.85,0.59,0.59,1.36,1.36,-1.36,-1.33,-1.40,-0.77,-0.77,-0.77
220.03,0.55,0.54,1.33,1.33,-1.33,-1.31,-1.40,-0.78,-0.79,-0.79
222.23,0.50,0.50,1.30,1.30,-1.30,-1.29,-1.40,-0.80,-0.80,-0.80
224.45,0.46,0.45,1.28,1.27,-1.27,-1.27,-1.40,-0.82,-0.82,-0.82
226.70,0.41,0.41,1.24,1.24,-1.24,-1.25,-1.40,-0.84,-0.84,-0.84
228.96,0.37,0.36,1.22,1.21,-1.22,-1.23,-1.40,-0.85,-0.85,-0.85
231.25,0.32,0.32,1.18,1.18,-1.19,-1.21,-1.40,-0.87,-0.87,-0.86
233.57,0.28,0.28,1.15,1.16,-1.16,-1.18,-1.40,-0.88,-0.88,-0.88
235.90,0.24,0.23,1.14,1.13,-1.13,-1.16,-1.39,-0.90,-0.90,-0.90
238.26,0.20,0.19,1.11,1.11,-1.10,-1.14,-1.39,-0.91,-0.91,-0.92
240.64,0.15,0.15,1.07,1.08,-1.08,-1.11,-1.38,-0.93,-0.93,-0.93
243.05,0.11,0.11,1.05,1.05,-1.05,-1.09,-1.37,-0.94,-0.94,-0.94
245.48,0.07,0.07,1.02,1.02,-1.02,-1.06,-1.36,-0.95,-0.95,-0.95
247.93,0.03,0.03,0.99,0.99,-0.99,-1.04,-1.34,-0.96,-0.96,-0.96
250.41,-0.01,-0.01,0.96,0.96,-0.96,-1.01,-1.33,-0.97,-0.97,-0.97
252.92,-0.05,-0.05,0.93,0.93,-0.93,-0.99,-1.31,-0.98,-0.98,-0.98
255.45,-0.09,-0.09,0.90,0.90,-0.90,-0.96,-1.29,-0.99,-0.99,-0.99
258.00,-0.13,-0.13,0.87,0.87,-0.87,-0.94,-1.27,-1.00,-1.00,-1.00
260.58,-0.17,-0.17,0.84,0.84,-0.84,-0.91,-1.24,-1.01,-1.01,-1.01
263.19,-0.21,-0.21,0.81,0.81,-0.81,-0.88,-1.21,-1.02,-1.02,-1.02
265.82,-0.25,-0.25,0.78,0.78,-0.78,-0.86,-1.19,-1.03,-1.03,-1.03
268.48,-0.29,-0.29,0.75,0.75,-0.75,-0.83,-1.15,-1.04,-1.04,-1.04
271.16,-0.33,-0.33,0.71,0.71,-0.72,-0.80,-1.12,-1.05,-1.05,-1.05
273.87,-0.37,-0.37,0.68,0.68,-0.68,-0.78,-1.09,-1.06,-1.06,-1.06
276.61,-0.41,-0.41,0.65,0.65,-0.65,-0.75,-1.05,-1.07,-1.06,-1.06
279.38,-0.44,-0.45,0.63,0.62,-0.62,-0.72,-1.01,-1.06,-1.07,-1.07
282.17,-0.48,-0.48,0.59,0.59,-0.59,-0.69,-0.98,-1.07,-1.07,-1.08
284.99,-0.52,-0.52,0.55,0.56,-0.56,-0.66,-0.94,-1.08,-1.08,-1.08
287.84,-0.55,-0.56,0.52,0.52,-0.52,-0.63,-0.89,-1.08,-1.08,-1.07
290.72,-0.59,-0.59,0.48,0.49,-0.49,-0.60,-0.85,-1.08,-1.08,-1.08
293.63,-0.62,-0.62,0.46,0.46,-0.46,-0.58,-0.81,-1.08,-1.08,-1.08
296.57,-0.65,-0.66,0.43,0.42,-0.42,-0.55,-0.76,-1.08,-1.08,-1.08
299.53,-0.69,-0.69,0.38,0.39,-0.39,-0.52,-0.72,-1.08,-1.08,-1.08
302.53,-0.72,-0.72,0.36,0.36,-0.36,-0.49,-0.67,-1.08,-1.08,-1.08
305.55,-0.75,-0.76,0.32,0.32,-0.32,-0.46,-0.63,-1.08,-1.08,-1.08
308.61,-0.79,-0.79,0.29,0.29,-0.29,-0.43,-0.58,-1.08,-1.08,-1.08
311.69,-0.82,-0.82,0.25,0.26,-0.26,-0.39,-0.53,-1.08,-1.08,-1.08
314.81,-0.85,-0.86,0.23,0.23,-0.22,-0.36,-0.49,-1.08,-1.08,-1.08
317.96,-0.88,-0.89,0.19,0.19,-0.19,-0.33,-0.44,-1.07,-1.08,-1.08
321.14,-0.92,-0.92,0.16,0.16,-0.16,-0.30,-0.39,-1.08,-1.08,-1.08
324.35,-0.95,-0.95,0.12,0.12,-0.12,-0.27,-0.34,-1.08,-1.08,-1.08
327.59,-0.98,-0.98,0.09,0.09,-0.09,-0.24,-0.30,-1.08,-1.08,-1.07
330.87,-1.01,-1.01,0.06,0.06,-0.06,-0.20,-0.25,-1.07,-1.07,-1.07
334.18,-1.04,-1.04,0.02,0.03,-0.02,-0.17,-0.20,-1.07,-1.07,-1.07
337.52,-1.07,-1.07,-0.00,-0.01,0.01,-0.14,-0.15,-1.07,-1.07,-1.07
340.90,-1.10,-1.10,-0.04,-0.04,0.04,-0.11,-0.10,-1.06,-1.06,-1.06
344.30,-1.13,-1.13,-0.08,-0.07,0.07,-0.07,-0.05,-1.06,-1.06,-1.06
347.75,-1.16,-1.16,-0.11,-0.11,0.11,-0.04,-0.00,-1.06,-1.06,-1.05
351.23,-1.19,-1.19,-0.14,-0.14,0.14,-0.01,0.05,-1.05,-1.05,-1.05
354.74,-1.21,-1.22,-0.18,-0.17,0.17,0.03,0.09,-1.04,-1.04,-1.04
358.28,-1.24,-1.25,-0.20,-0.21,0.21,0.06,0.14,-1.04,-1.04,-1.04
361.87,-1.27,-1.27,-0.24,-0.24,0.24,0.10,0.19,-1.03,-1.03,-1.03
365.49,-1.30,-1.30,-0.28,-0.27,0.27,0.13,0.24,-1.03,-1.03,-1.03
369.14,-1.32,-1.33,-0.29,-0.30,0.30,0.17,0.29,-1.02,-1.02,-1.03
372.83,-1.35,-1.35,-0.34,-0.34,0.33,0.20,0.34,-1.02,-1.02,-1.01
376.56,-1.37,-1.38,-0.36,-0.36,0.36,0.24,0.39,-1.01,-1.01,-1.01
380.33,-1.40,-1.40,-0.40,-0.39,0.39,0.27,0.44,-1.01,-1.01,-1.01
384.13,-1.42,-1.43,-0.42,-0.42,0.43,0.31,0.49,-1.00,-1.00,-1.01
387.97,-1.45,-1.45,-0.45,-0.45,0.46,0.34,0.54,-1.00,-1.00,-1.00
391.85,-1.47,-1.47,-0.49,-0.48,0.48,0.38,0.59,-0.99,-0.99,-0.98
395.77,-1.49,-1.50,-0.51,-0.52,0.51,0.42,0.64,-0.98,-0.98,-0.98
399.73,-1.52,-1.52,-0.55,-0.54,0.54,0.45,0.69,-0.98,-0.98,-0.98
403.72,-1.54,-1.54,-0.58,-0.57,0.57,0.49,0.73,-0.97,-0.97,-0.97
407.76,-1.56,-1.56,-0.59,-0.60,0.60,0.52,0.78,-0.97,-0.97,-0.97
411.84,-1.58,-1.58,-0.62,-0.62,0.62,0.56,0.83,-0.96,-0.96,-0.96
415.96,-1.60,-1.60,-0.65,-0.65,0.65,0.60,0.88,-0.96,-0.96,-0.95
420.12,-1.62,-1.62,-0.67,-0.67,0.67,0.63,0.92,-0.95,-0.95,-0.96
424.32,-1.64,-1.64,-0.70,-0.70,0.69,0.67,0.97,-0.95,-0.95,-0.95
428.56,-1.66,-1.66,-0.73,-0.72,0.72,0.71,1.01,-0.94,-0.94,-0.94
432.85,-1.67,-1.68,-0.74,-0.74,0.75,0.74,1.06,-0.93,-0.93,-0.93
437.18,-1.69,-1.69,-0.76,-0.77,0.77,0.78,1.10,-0.92,-0.92,-0.93
441.55,-1.71,-1.71,-0.79,-0.79,0.80,0.81,1.14,-0.92,-0.92,-0.92
445.96,-1.73,-1.73,-0.82,-0.82,0.82,0.85,1.18,-0.91,-0.91,-0.91
450.42,-1.75,-1.75,-0.86,-0.85,0.85,0.88,1.22,-0.91,-0.90,-0.90
454.93,-1.76,-1.77,-0.88,-0.88,0.87,0.92,1.25,-0.89,-0.89,-0.89
459.48,-1.78,-1.78,-0.91,-0.90,0.90,0.95,1.28,-0.89,-0.88,-0.88
464.07,-1.79,-1.80,-0.91,-0.92,0.92,0.98,1.32,-0.87,-0.88,-0.88
468.71,-1.81,-1.81,-0.94,-0.94,0.94,1.02,1.34,-0.87,-0.87,-0.87
473.40,-1.82,-1.82,-0.96,-0.96,0.96,1.05,1.37,-0.86,-0.86,-0.86
478.13,-1.83,-1.83,-0.98,-0.98,0.98,1.08,1.39,-0.85,-0.85,-0.85
482.91,-1.84,-1.84,-1.00,-1.00,1.00,1.11,1.41,-0.84,-0.84,-0.84
487.74,-1.85,-1.85,-1.02,-1.02,1.02,1.14,1.43,-0.83,-0.83,-0.83
492.62,-1.86,-1.86,-1.04,-1.04,1.04,1.17,1.45,-0.82,-0.82,-0.83
497.55,-1.87,-1.87,-1.06,-1.06,1.06,1.20,1.46,-0.81,-0.81,-0.82
502.52,-1.88,-1.88,-1.08,-1.08,1.08,1.22,1.47,-0.80,-0.80,-0.81
507.55,-1.89,-1.89,-1.11,-1.10,1.10,1.25,1.47,-0.80,-0.79,-0.79
512.62,-1.89,-1.90,-1.12,-1.12,1.12,1.27,1.48,-0.78,-0.78,-0.78
