frequency,raw,smoothed,error,error_smoothed,equalization,parametric_eq,fixed_band_eq,equalized_raw,equalized_smoothed,target
20.00,14.99,14.99,6.48,6.48,-6.67,-4.41,-2.27,8.32,8.32,8.51
20.20,15.03,15.03,6.52,6.52,-6.55,-4.41,-2.33,8.48,8.49,8.51
20.40,15.03,15.03,6.52,6.51,-6.43,-4.41,-2.40,8.60,8.60,8.51
20.61,14.99,14.98,6.48,6.46,-6.32,-4.41,-2.47,8.67,8.66,8.51
20.81,14.87,14.87,6.36,6.36,-6.22,-4.40,-2.54,8.65,8.66,8.51
21.02,14.73,14.73,6.22,6.22,-6.12,-4.40,-2.62,8.61,8.61,8.51
21.23,14.56,14.56,6.05,6.05,-6.03,-4.40,-2.69,8.53,8.54,8.51
21.44,14.40,14.40,5.89,5.90,-5.94,-4.40,-2.77,8.46,8.47,8.51
21.66,14.27,14.27,5.76,5.76,-5.83,-4.40,-2.85,8.45,8.44,8.51
21.87,14.16,14.17,5.65,5.66,-5.73,-4.40,-2.93,8.43,8.44,8.51
22.09,14.11,14.12,5.60,5.61,-5.66,-4.40,-3.02,8.45,8.45,8.51
22.31,14.10,14.10,5.59,5.59,-5.62,-4.40,-3.10,8.49,8.48,8.51
22.54,14.10,14.10,5.60,5.60,-5.58,-4.40,-3.19,8.52,8.52,8.51
22.76,14.11,14.11,5.61,5.60,-5.56,-4.39,-3.29,8.55,8.55,8.50
22.99,14.10,14.09,5.60,5.59,-5.54,-4.39,-3.38,8.56,8.56,8.50
23.22,14.06,14.06,5.56,5.56,-5.51,-4.39,-3.48,8.55,8.55,8.50
23.45,14.00,14.00,5.50,5.50,-5.48,-4.39,-3.57,8.52,8.52,8.50
23.69,13.93,13.93,5.43,5.43,-5.44,-4.39,-3.67,8.50,8.50,8.50
23.92,13.86,13.86,5.36,5.37,-5.39,-4.39,-3.78,8.47,8.47,8.50
24.16,13.81,13.81,5.31,5.31,-5.35,-4.39,-3.88,8.47,8.47,8.50
24.40,13.77,13.77,5.27,5.28,-5.30,-4.38,-3.99,8.47,8.47,8.50
24.65,13.75,13.75,5.26,5.26,-5.27,-4.38,-4.09,8.48,8.48,8.50
24.89,13.74,13.74,5.25,5.24,-5.24,-4.38,-4.20,8.50,8.50,8.49
25.14,13.72,13.72,5.23,5.23,-5.21,-4.38,-4.31,8.51,8.51,8.49
25.39,13.71,13.71,5.22,5.21,-5.19,-4.38,-4.42,8.52,8.51,8.49
25.65,13.68,13.68,5.19,5.19,-5.17,-4.38,-4.53,8.51,8.51,8.49
25.91,13.64,13.64,5.15,5.15,-5.15,-4.37,-4.64,8.49,8.49,8.49
26.16,13.60,13.60,5.11,5.12,-5.13,-4.37,-4.75,8.47,8.47,8.49
26.43,13.57,13.58,5.09,5.09,-5.11,-4.37,-4.86,8.46,8.47,8.49
26.69,13.56,13.56,5.08,5.08,-5.09,-4.37,-4.97,8.47,8.47,8.48
26.96,13.55,13.55,5.07,5.07,-5.07,-4.36,-5.08,8.48,8.48,8.48
27.23,13.54,13.54,5.06,5.06,-5.05,-4.36,-5.19,8.49,8.49,8.48
27.50,13.53,13.53,5.05,5.05,-5.04,-4.36,-5.29,8.49,8.49,8.48
27.77,13.51,13.51,5.03,5.04,-5.02,-4.36,-5.39,8.49,8.49,8.48
28.05,13.49,13.49,5.02,5.01,-5.01,-4.36,-5.48,8.48,8.48,8.47
28.33,13.46,13.46,4.99,4.99,-4.99,-4.35,-5.57,8.47,8.47,8.47
28.62,13.43,13.43,4.96,4.96,-4.97,-4.35,-5.66,8.46,8.46,8.47
28.90,13.41,13.41,4.94,4.94,-4.96,-4.35,-5.74,8.45,8.45,8.47
29.19,13.39,13.39,4.93,4.93,-4.94,-4.34,-5.81,8.45,8.46,8.47
29.48,13.38,13.38,4.92,4.92,-4.92,-4.34,-5.87,8.46,8.46,8.46
29.78,13.37,13.37,4.91,4.91,-4.90,-4.34,-5.93,8.47,8.47,8.46
30.08,13.35,13.35,4.89,4.89,-4.88,-4.33,-5.98,8.47,8.47,8.46
30.38,13.32,13.32,4.87,4.87,-4.85,-4.33,-6.02,8.47,8.47,8.45
30.68,13.28,13.28,4.83,4.83,-4.83,-4.33,-6.05,8.45,8.45,8.45
30.99,13.25,13.25,4.80,4.80,-4.81,-4.32,-6.08,8.44,8.44,8.45
31.30,13.21,13.21,4.76,4.77,-4.78,-4.32,-6.09,8.43,8.44,8.45
31.61,13.18,13.18,4.74,4.74,-4.75,-4.32,-6.09,8.43,8.44,8.44
31.93,13.16,13.16,4.72,4.72,-4.72,-4.31,-6.09,8.44,8.44,8.44
32.24,13.13,13.13,4.69,4.70,-4.68,-4.31,-6.07,8.45,8.45,8.44
32.57,13.10,13.10,4.67,4.67,-4.65,-4.30,-6.05,8.45,8.45,8.43
32.89,13.06,13.06,4.63,4.63,-4.62,-4.30,-6.02,8.44,8.43,8.43
33.22,13.01,13.01,4.59,4.59,-4.59,-4.30,-5.98,8.42,8.42,8.43
33.55,12.97,12.97,4.55,4.55,-4.57,-4.29,-5.93,8.40,8.41,8.42
33.89,12.94,12.94,4.52,4.52,-4.54,-4.29,-5.88,8.40,8.40,8.42
34.23,12.92,12.92,4.51,4.51,-4.51,-4.28,-5.82,8.41,8.41,8.41
34.57,12.90,12.90,4.49,4.49,-4.48,-4.28,-5.75,8.42,8.42,8.41
34.92,12.88,12.88,4.48,4.47,-4.46,-4.27,-5.68,8.42,8.42,8.40
35.27,12.85,12.85,4.45,4.45,-4.44,-4.26,-5.60,8.42,8.41,8.40
35.62,12.81,12.81,4.42,4.42,-4.42,-4.26,-5.53,8.40,8.40,8.39
35.97,12.77,12.77,4.38,4.38,-4.40,-4.25,-5.44,8.37,8.38,8.39
36.33,12.74,12.74,4.36,4.36,-4.38,-4.25,-5.36,8.36,8.37,8.38
36.70,12.72,12.72,4.34,4.34,-4.36,-4.24,-5.27,8.36,8.37,8.38
37.06,12.71,12.71,4.34,4.34,-4.34,-4.23,-5.19,8.37,8.37,8.37
37.43,12.70,12.69,4.33,4.33,-4.31,-4.23,-5.10,8.39,8.38,8.37
37.81,12.67,12.67,4.31,4.31,-4.29,-4.22,-5.01,8.38,8.38,8.36
38.19,12.64,12.64,4.29,4.28,-4.27,-4.21,-4.92,8.37,8.37,8.35
38.57,12.60,12.60,4.25,4.25,-4.25,-4.20,-4.84,8.35,8.35,8.35
38.95,12.56,12.56,4.22,4.22,-4.23,-4.19,-4.75,8.33,8.33,8.34
39.34,12.52,12.53,4.19,4.19,-4.20,-4.19,-4.67,8.32,8.32,8.33
39.74,12.50,12.50,4.17,4.17,-4.18,-4.18,-4.59,8.32,8.32,8.33
40.14,12.47,12.47,4.15,4.15,-4.15,-4.17,-4.50,8.32,8.32,8.32
40.54,12.44,12.44,4.13,4.13,-4.12,-4.16,-4.43,8.32,8.32,8.31
40.94,12.41,12.40,4.11,4.10,-4.09,-4.15,-4.35,8.32,8.31,8.30
41.35,12.36,12.36,4.07,4.07,-4.07,-4.14,-4.28,8.29,8.30,8.30
41.76,12.32,12.32,4.03,4.03,-4.04,-4.13,-4.20,8.28,8.28,8.29
42.18,12.28,12.28,4.00,4.00,-4.02,-4.12,-4.14,8.26,8.27,8.28
42.60,12.25,12.25,3.98,3.98,-3.99,-4.11,-4.07,8.26,8.26,8.27
43.03,12.22,12.22,3.96,3.96,-3.96,-4.09,-4.01,8.26,8.26,8.26
43.46,12.19,12.19,3.94,3.94,-3.93,-4.08,-3.95,8.26,8.26,8.25
43.90,12.15,12.15,3.91,3.91,-3.90,-4.07,-3.89,8.25,8.25,8.24
44.33,12.11,12.11,3.88,3.88,-3.87,-4.05,-3.84,8.24,8.24,8.23
44.78,12.06,12.06,3.85,3.85,-3.85,-4.04,-3.79,8.22,8.22,8.22
45.23,12.02,12.02,3.82,3.81,-3.82,-4.03,-3.74,8.20,8.20,8.20
45.68,11.97,11.97,3.78,3.78,-3.79,-4.01,-3.69,8.18,8.18,8.19
46.13,11.93,11.93,3.75,3.75,-3.77,-4.00,-3.65,8.16,8.17,8.18
46.60,11.90,11.90,3.73,3.73,-3.74,-3.98,-3.61,8.16,8.16,8.17
47.06,11.87,11.87,3.72,3.72,-3.72,-3.96,-3.57,8.15,8.15,8.15
47.53,11.85,11.85,3.71,3.71,-3.70,-3.94,-3.54,8.15,8.15,8.14
48.01,11.82,11.82,3.70,3.69,-3.68,-3.93,-3.51,8.14,8.14,8.13
48.49,11.78,11.78,3.67,3.67,-3.66,-3.91,-3.48,8.12,8.12,8.11
48.97,11.73,11.73,3.64,3.64,-3.63,-3.89,-3.45,8.10,8.10,8.10
49.46,11.68,11.68,3.60,3.60,-3.61,-3.87,-3.43,8.07,8.08,8.08
49.96,11.64,11.64,3.58,3.57,-3.58,-3.85,-3.40,8.06,8.06,8.06
50.46,11.59,11.59,3.54,3.55,-3.55,-3.82,-3.38,8.04,8.04,8.05
50.96,11.55,11.55,3.52,3.52,-3.52,-3.80,-3.37,8.03,8.02,8.03
51.47,11.50,11.50,3.49,3.49,-3.50,-3.78,-3.35,8.00,8.00,8.01
51.99,11.46,11.46,3.47,3.47,-3.47,-3.75,-3.33,7.99,7.99,7.99
52.51,11.42,11.42,3.45,3.45,-3.45,-3.73,-3.32,7.97,7.97,7.97
53.03,11.39,11.38,3.44,3.43,-3.43,-3.70,-3.31,7.96,7.96,7.95
53.56,11.34,11.34,3.41,3.41,-3.40,-3.68,-3.30,7.94,7.94,7.93
54.10,11.29,11.29,3.38,3.38,-3.38,-3.65,-3.29,7.91,7.91,7.91
54.64,11.24,11.24,3.35,3.35,-3.36,-3.62,-3.28,7.88,7.89,7.89
55.18,11.20,11.20,3.33,3.33,-3.34,-3.59,-3.27,7.86,7.86,7.87
55.74,11.15,11.15,3.31,3.31,-3.31,-3.56,-3.26,7.84,7.84,7.84
56.29,11.11,11.11,3.29,3.29,-3.29,-3.53,-3.26,7.82,7.82,7.82
56.86,11.06,11.07,3.27,3.27,-3.27,-3.50,-3.25,7.79,7.79,7.79
57.42,11.02,11.02,3.25,3.25,-3.25,-3.46,-3.24,7.77,7.77,7.77
58.00,10.98,10.97,3.24,3.23,-3.23,-3.43,-3.23,7.75,7.74,7.74
58.58,10.92,10.92,3.21,3.21,-3.21,-3.39,-3.22,7.71,7.72,7.71
59.16,10.87,10.87,3.18,3.19,-3.19,-3.36,-3.21,7.68,7.69,7.69
59.76,10.82,10.82,3.16,3.16,-3.16,-3.32,-3.20,7.66,7.66,7.66
60.35,10.77,10.77,3.14,3.14,-3.14,-3.29,-3.19,7.63,7.63,7.63
60.96,10.72,10.71,3.12,3.12,-3.11,-3.25,-3.18,7.61,7.60,7.60
61.57,10.65,10.65,3.09,3.09,-3.09,-3.21,-3.16,7.56,7.56,7.57
62.18,10.59,10.59,3.06,3.06,-3.07,-3.17,-3.15,7.52,7.53,7.53
62.80,10.54,10.54,3.04,3.04,-3.05,-3.14,-3.13,7.49,7.49,7.50
63.43,10.49,10.49,3.02,3.02,-3.02,-3.10,-3.11,7.47,7.47,7.47
64.07,10.44,10.44,3.01,3.01,-3.00,-3.06,-3.09,7.44,7.44,7.43
64.71,10.38,10.38,2.99,2.99,-2.98,-3.02,-3.07,7.40,7.40,7.39
65.35,10.32,10.32,2.96,2.96,-2.96,-2.99,-3.05,7.36,7.36,7.36
66.01,10.25,10.25,2.93,2.93,-2.94,-2.95,-3.02,7.31,7.32,7.32
66.67,10.19,10.19,2.91,2.91,-2.92,-2.92,-3.00,7.27,7.27,7.28
67.33,10.13,10.13,2.89,2.89,-2.90,-2.89,-2.97,7.23,7.23,7.24
68.01,10.07,10.07,2.87,2.88,-2.88,-2.85,-2.94,7.19,7.20,7.20
68.69,10.02,10.02,2.86,2.86,-2.86,-2.82,-2.92,7.17,7.16,7.16
69.37,9.96,9.96,2.85,2.84,-2.83,-2.79,-2.89,7.13,7.12,7.11
70.07,9.89,9.89,2.82,2.82,-2.81,-2.77,-2.86,7.08,7.08,7.07
70.77,9.81,9.82,2.79,2.79,-2.79,-2.74,-2.83,7.02,7.03,7.03
71.48,9.74,9.74,2.76,2.76,-2.77,-2.72,-2.80,6.97,6.97,6.98
72.19,9.67,9.67,2.74,2.74,-2.74,-2.70,-2.77,6.93,6.92,6.93
72.91,9.59,9.60,2.71,2.72,-2.72,-2.68,-2.74,6.87,6.88,6.88
73.64,9.53,9.53,2.70,2.69,-2.69,-2.66,-2.71,6.84,6.84,6.83
74.38,9.46,9.45,2.68,2.67,-2.67,-2.65,-2.69,6.79,6.79,6.78
75.12,9.37,9.37,2.64,2.64,-2.64,-2.64,-2.66,6.73,6.73,6.73
75.87,9.29,9.29,2.61,2.61,-2.61,-2.63,-2.63,6.68,6.68,6.68
76.63,9.20,9.21,2.57,2.58,-2.57,-2.62,-2.61,6.63,6.64,6.63
77.40,9.13,9.13,2.56,2.55,-2.53,-2.61,-2.58,6.60,6.60,6.57
78.17,9.04,9.04,2.52,2.52,-2.49,-2.61,-2.56,6.55,6.55,6.52
78.95,8.95,8.94,2.49,2.48,-2.46,-2.61,-2.54,6.49,6.47,6.46
79.74,8.83,8.83,2.43,2.43,-2.45,-2.61,-2.52,6.38,6.38,6.40
80.54,8.74,8.75,2.40,2.40,-2.45,-2.61,-2.50,6.29,6.30,6.35
81.35,8.68,8.69,2.39,2.41,-2.47,-2.61,-2.48,6.21,6.23,6.29
82.16,8.68,8.68,2.45,2.46,-2.50,-2.62,-2.47,6.18,6.19,6.23
82.98,8.70,8.70,2.54,2.53,-2.54,-2.62,-2.45,6.16,6.16,6.17
83.81,8.72,8.72,2.62,2.61,-2.59,-2.63,-2.44,6.14,6.13,6.10
84.65,8.72,8.71,2.68,2.67,-2.63,-2.63,-2.43,6.09,6.08,6.04
85.50,8.69,8.69,2.71,2.71,-2.68,-2.64,-2.42,6.01,6.01,5.98
86.35,8.64,8.65,2.73,2.73,-2.71,-2.65,-2.41,5.93,5.93,5.91
87.22,8.59,8.59,2.74,2.74,-2.73,-2.66,-2.41,5.86,5.86,5.85
88.09,8.52,8.52,2.74,2.74,-2.73,-2.67,-2.41,5.79,5.79,5.78
88.97,8.43,8.44,2.72,2.72,-2.72,-2.67,-2.41,5.71,5.72,5.71
89.86,8.35,8.35,2.70,2.70,-2.70,-2.68,-2.41,5.65,5.65,5.65
90.76,8.25,8.25,2.67,2.67,-2.68,-2.69,-2.41,5.57,5.58,5.58
91.66,8.16,8.16,2.65,2.65,-2.66,-2.70,-2.41,5.50,5.50,5.51
92.58,8.08,8.08,2.64,2.64,-2.65,-2.71,-2.42,5.43,5.42,5.44
93.51,8.00,8.00,2.63,2.63,-2.65,-2.72,-2.42,5.35,5.35,5.37
94.44,7.93,7.94,2.63,2.63,-2.65,-2.72,-2.43,5.28,5.28,5.30
95.39,7.88,7.89,2.65,2.65,-2.66,-2.73,-2.44,5.22,5.22,5.23
96.34,7.85,7.85,2.69,2.69,-2.68,-2.74,-2.46,5.17,5.17,5.16
97.30,7.81,7.81,2.72,2.73,-2.70,-2.75,-2.47,5.11,5.11,5.09
98.28,7.77,7.75,2.75,2.73,-2.72,-2.75,-2.48,5.05,5.03,5.02
99.26,7.69,7.69,2.75,2.75,-2.75,-2.76,-2.50,4.94,4.94,4.94
100.25,7.59,7.63,2.72,2.76,-2.77,-2.76,-2.52,4.82,4.87,4.87
101.25,7.60,7.57,2.80,2.77,-2.78,-2.77,-2.53,4.82,4.79,4.80
102.27,7.53,7.52,2.81,2.80,-2.80,-2.77,-2.55,4.74,4.73,4.73
103.29,7.45,7.46,2.80,2.81,-2.80,-2.77,-2.57,4.65,4.66,4.65
104.32,7.39,7.39,2.81,2.81,-2.81,-2.77,-2.59,4.58,4.58,4.58
105.37,7.32,7.32,2.81,2.82,-2.81,-2.77,-2.61,4.51,4.51,4.51
106.42,7.25,7.25,2.82,2.82,-2.81,-2.77,-2.63,4.44,4.44,4.43
107.48,7.18,7.17,2.82,2.81,-2.80,-2.76,-2.65,4.38,4.37,4.36
108.56,7.08,7.09,2.79,2.80,-2.80,-2.76,-2.67,4.29,4.29,4.29
109.64,6.99,7.00,2.78,2.78,-2.78,-2.75,-2.69,4.21,4.21,4.22
110.74,6.91,6.91,2.77,2.76,-2.77,-2.74,-2.71,4.14,4.13,4.14
111.85,6.82,6.82,2.75,2.75,-2.76,-2.73,-2.72,4.06,4.06,4.07
112.97,6.74,6.74,2.74,2.74,-2.75,-2.72,-2.74,3.99,3.99,4.00
114.10,6.66,6.66,2.73,2.74,-2.73,-2.70,-2.75,3.93,3.93,3.93
115.24,6.59,6.58,2.74,2.73,-2.72,-2.69,-2.76,3.87,3.86,3.86
116.39,6.50,6.50,2.72,2.72,-2.71,-2.67,-2.77,3.79,3.79,3.78
117.55,6.41,6.41,2.70,2.70,-2.69,-2.65,-2.78,3.72,3.72,3.71
118.73,6.32,6.32,2.68,2.68,-2.68,-2.63,-2.78,3.64,3.64,3.64
119.92,6.23,6.23,2.66,2.66,-2.66,-2.61,-2.79,3.57,3.57,3.57
121.12,6.15,6.15,2.65,2.64,-2.65,-2.59,-2.79,3.50,3.50,3.51
122.33,6.06,6.07,2.62,2.63,-2.63,-2.57,-2.78,3.43,3.43,3.44
123.55,5.99,5.98,2.62,2.61,-2.61,-2.54,-2.77,3.38,3.37,3.37
124.79,5.90,5.90,2.60,2.60,-2.60,-2.52,-2.76,3.30,3.31,3.30
126.03,5.82,5.82,2.58,2.58,-2.58,-2.50,-2.75,3.24,3.24,3.24
127.29,5.74,5.74,2.57,2.57,-2.56,-2.48,-2.73,3.18,3.17,3.17
128.57,5.65,5.65,2.54,2.55,-2.55,-2.46,-2.71,3.11,3.11,3.11
129.85,5.57,5.57,2.53,2.52,-2.53,-2.43,-2.69,3.05,3.04,3.04
131.15,5.48,5.48,2.50,2.50,-2.50,-2.41,-2.66,2.98,2.98,2.98
132.46,5.39,5.40,2.47,2.48,-2.48,-2.39,-2.63,2.91,2.92,2.92
133.79,5.31,5.31,2.45,2.45,-2.45,-2.37,-2.60,2.86,2.86,2.86
135.12,5.23,5.23,2.43,2.43,-2.43,-2.35,-2.57,2.80,2.80,2.80
136.48,5.14,5.14,2.40,2.40,-2.40,-2.33,-2.53,2.74,2.74,2.74
137.84,5.04,5.05,2.36,2.37,-2.37,-2.31,-2.49,2.67,2.68,2.68
139.22,4.95,4.95,2.33,2.33,-2.33,-2.29,-2.45,2.62,2.62,2.62
140.61,4.87,4.87,2.31,2.30,-2.30,-2.27,-2.41,2.57,2.56,2.56
142.02,4.78,4.78,2.27,2.27,-2.27,-2.25,-2.37,2.51,2.51,2.51
143.44,4.69,4.70,2.24,2.24,-2.24,-2.23,-2.32,2.45,2.45,2.45
144.87,4.61,4.61,2.21,2.21,-2.22,-2.21,-2.27,2.40,2.39,2.40
146.32,4.53,4.53,2.18,2.18,-2.19,-2.18,-2.23,2.34,2.34,2.35
147.78,4.44,4.46,2.14,2.16,-2.16,-2.16,-2.18,2.28,2.30,2.30
149.26,4.39,4.38,2.15,2.14,-2.13,-2.13,-2.13,2.26,2.25,2.25
150.75,4.31,4.30,2.11,2.11,-2.10,-2.10,-2.08,2.21,2.20,2.20
152.26,4.21,4.22,2.06,2.07,-2.06,-2.07,-2.03,2.15,2.15,2.15
153.78,4.12,4.13,2.02,2.03,-2.03,-2.04,-1.99,2.09,2.10,2.10
155.32,4.04,4.04,1.99,1.99,-1.99,-2.01,-1.94,2.05,2.05,2.05
156.88,3.97,3.96,1.96,1.95,-1.95,-1.97,-1.89,2.02,2.01,2.01
158.44,3.88,3.88,1.92,1.92,-1.92,-1.93,-1.84,1.96,1.96,1.96
160.03,3.79,3.80,1.87,1.88,-1.88,-1.90,-1.79,1.91,1.92,1.92
161.63,3.71,3.71,1.84,1.84,-1.84,-1.86,-1.75,1.87,1.87,1.87
163.24,3.63,3.63,1.80,1.80,-1.81,-1.82,-1.70,1.82,1.82,1.83
164.88,3.55,3.55,1.76,1.77,-1.77,-1.77,-1.66,1.78,1.78,1.79
166.53,3.48,3.48,1.73,1.74,-1.74,-1.73,-1.61,1.74,1.75,1.75
168.19,3.42,3.42,1.71,1.71,-1.70,-1.68,-1.57,1.72,1.71,1.71
169.87,3.35,3.35,1.68,1.68,-1.67,-1.64,-1.53,1.68,1.67,1.67
171.57,3.27,3.27,1.64,1.64,-1.64,-1.59,-1.49,1.63,1.64,1.63
173.29,3.20,3.20,1.60,1.60,-1.60,-1.55,-1.45,1.60,1.60,1.60
175.02,3.13,3.13,1.57,1.57,-1.57,-1.50,-1.41,1.56,1.57,1.56
176.77,3.07,3.07,1.54,1.54,-1.53,-1.45,-1.37,1.54,1.54,1.53
178.54,3.00,3.00,1.50,1.50,-1.49,-1.41,-1.33,1.51,1.50,1.50
180.32,2.92,2.92,1.45,1.46,-1.46,-1.36,-1.30,1.46,1.47,1.47
182.13,2.85,2.85,1.41,1.41,-1.42,-1.32,-1.26,1.43,1.43,1.44
183.95,2.78,2.78,1.37,1.37,-1.39,-1.27,-1.23,1.40,1.39,1.41
185.79,2.71,2.72,1.33,1.35,-1.35,-1.23,-1.20,1.36,1.38,1.38
187.65,2.67,2.67,1.32,1.32,-1.31,-1.19,-1.16,1.36,1.36,1.35
189.52,2.62,2.61,1.30,1.29,-1.27,-1.14,-1.13,1.35,1.33,1.32
191.42,2.54,2.54,1.25,1.25,-1.24,-1.10,-1.10,1.30,1.30,1.29
193.33,2.46,2.47,1.19,1.20,-1.21,-1.06,-1.07,1.25,1.26,1.27
195.27,2.40,2.40,1.16,1.16,-1.18,-1.02,-1.05,1.23,1.22,1.24
197.22,2.34,2.35,1.12,1.13,-1.14,-0.99,-1.02,1.20,1.21,1.22
199.19,2.30,2.30,1.11,1.11,-1.10,-0.95,-0.99,1.20,1.20,1.20
201.18,2.26,2.25,1.09,1.08,-1.06,-0.92,-0.97,1.20,1.19,1.17
203.19,2.20,2.19,1.05,1.04,-1.02,-0.88,-0.94,1.18,1.17,1.15
205.23,2.11,2.12,0.98,0.99,-0.98,-0.85,-0.92,1.13,1.14,1.13
207.28,2.04,2.04,0.93,0.93,-0.95,-0.82,-0.89,1.09,1.10,1.11
209.35,1.98,1.98,0.89,0.89,-0.91,-0.79,-0.87,1.07,1.07,1.09
211.44,1.91,1.92,0.84,0.85,-0.87,-0.76,-0.85,1.04,1.06,1.07
213.56,1.88,1.87,0.83,0.82,-0.83,-0.73,-0.83,1.05,1.05,1.05
215.69,1.83,1.83,0.80,0.79,-0.79,-0.70,-0.81,1.04,1.04,1.03
217.85,1.77,1.78,0.76,0.76,-0.75,-0.68,-0.79,1.02,1.03,1.01
220.03,1.72,1.72,0.72,0.72,-0.71,-0.65,-0.77,1.01,1.01,1.00
222.23,1.66,1.66,0.68,0.68,-0.68,-0.63,-0.75,0.98,0.98,0.98
224.45,1.60,1.60,0.64,0.64,-0.64,-0.61,-0.73,0.96,0.96,0.96
226.70,1.54,1.54,0.59,0.59,-0.61,-0.58,-0.71,0.94,0.94,0.95
228.96,1.49,1.50,0.56,0.56,-0.57,-0.56,-0.70,0.92,0.93,0.93
231.25,1.45,1.45,0.53,0.53,-0.53,-0.54,-0.68,0.92,0.92,0.92
233.57,1.42,1.41,0.52,0.51,-0.50,-0.52,-0.66,0.92,0.91,0.91
235.90,1.36,1.36,0.48,0.48,-0.47,-0.50,-0.65,0.89,0.90,0.88
238.26,1.31,1.31,0.44,0.44,-0.44,-0.49,-0.63,0.87,0.88,0.87
240.64,1.26,1.26,0.40,0.41,-0.41,-0.47,-0.61,0.85,0.86,0.86
243.05,1.22,1.22,0.38,0.38,-0.38,-0.45,-0.60,0.84,0.84,0.84
245.48,1.19,1.18,0.36,0.35,-0.36,-0.44,-0.58,0.83,0.82,0.83
247.93,1.15,1.15,0.33,0.33,-0.34,-0.42,-0.57,0.81,0.81,0.82
250.41,1.10,1.13,0.29,0.32,-0.32,-0.41,-0.55,0.78,0.80,0.81
252.92,1.12,1.11,0.32,0.31,-0.31,-0.40,-0.54,0.81,0.80,0.80
255.45,1.11,1.09,0.32,0.30,-0.30,-0.39,-0.52,0.81,0.79,0.79
258.00,1.06,1.08,0.28,0.30,-0.29,-0.37,-0.51,0.77,0.79,0.78
260.58,1.06,1.06,0.29,0.29,-0.28,-0.36,-0.49,0.78,0.78,0.77
263.19,1.05,1.04,0.29,0.28,-0.28,-0.35,-0.48,0.77,0.77,0.76
265.82,1.03,1.02,0.28,0.27,-0.27,-0.34,-0.47,0.76,0.76,0.75
268.48,0.99,1.00,0.25,0.25,-0.26,-0.33,-0.45,0.73,0.74,0.74
271.16,0.97,0.98,0.24,0.24,-0.25,-0.33,-0.44,0.72,0.73,0.74
273.87,0.96,0.96,0.23,0.23,-0.24,-0.32,-0.43,0.73,0.72,0.73
276.61,0.95,0.95,0.23,0.23,-0.23,-0.31,-0.41,0.72,0.72,0.72
279.38,0.93,0.93,0.22,0.22,-0.22,-0.31,-0.40,0.71,0.71,0.71
282.17,0.92,0.92,0.22,0.21,-0.21,-0.30,-0.39,0.71,0.71,0.71
284.99,0.91,0.92,0.20,0.21,-0.21,-0.29,-0.37,0.70,0.71,0.71
287.84,0.92,0.92,0.21,0.21,-0.21,-0.29,-0.36,0.71,0.71,0.71
290.72,0.92,0.91,0.22,0.21,-0.21,-0.29,-0.35,0.71,0.70,0.71
293.63,0.91,0.92,0.21,0.21,-0.21,-0.28,-0.33,0.70,0.71,0.70
296.57,0.91,0.92,0.21,0.21,-0.21,-0.28,-0.32,0.70,0.71,0.70
299.53,0.92,0.92,0.21,0.21,-0.21,-0.28,-0.31,0.71,0.71,0.71
302.53,0.92,0.92,0.22,0.21,-0.21,-0.28,-0.30,0.71,0.71,0.70
305.55,0.91,0.92,0.20,0.21,-0.21,-0.28,-0.28,0.70,0.71,0.71
308.61,0.91,0.91,0.21,0.21,-0.21,-0.28,-0.27,0.70,0.70,0.70
311.69,0.92,0.91,0.21,0.21,-0.21,-0.28,-0.26,0.71,0.70,0.71
314.81,0.91,0.91,0.21,0.21,-0.22,-0.28,-0.25,0.69,0.70,0.70
317.96,0.92,0.92,0.21,0.22,-0.22,-0.28,-0.24,0.70,0.70,0.71
321.14,0.93,0.94,0.23,0.23,-0.23,-0.29,-0.23,0.70,0.71,0.70
324.35,0.96,0.95,0.25,0.24,-0.24,-0.29,-0.22,0.72,0.71,0.71
327.59,0.96,0.96,0.25,0.25,-0.25,-0.29,-0.20,0.71,0.71,0.71
330.87,0.96,0.97,0.25,0.26,-0.26,-0.30,-0.19,0.70,0.71,0.71
334.18,0.99,0.99,0.27,0.27,-0.27,-0.30,-0.18,0.72,0.71,0.72
337.52,1.01,1.00,0.30,0.29,-0.29,-0.31,-0.17,0.72,0.72,0.71
340.90,1.02,1.02,0.30,0.30,-0.30,-0.32,-0.16,0.72,0.72,0.72
344.30,1.03,1.04,0.30,0.31,-0.31,-0.33,-0.15,0.72,0.73,0.73
347.75,1.05,1.05,0.32,0.32,-0.32,-0.33,-0.14,0.73,0.73,0.73
351.23,1.07,1.07,0.34,0.33,-0.33,-0.34,-0.13,0.74,0.73,0.73
354.74,1.08,1.08,0.33,0.34,-0.34,-0.35,-0.12,0.74,0.74,0.75
358.28,1.10,1.10,0.36,0.35,-0.36,-0.36,-0.11,0.74,0.74,0.74
361.87,1.12,1.12,0.37,0.37,-0.37,-0.37,-0.10,0.75,0.75,0.75
365.49,1.13,1.14,0.37,0.38,-0.38,-0.38,-0.09,0.75,0.75,0.76
369.14,1.16,1.16,0.41,0.40,-0.40,-0.39,-0.08,0.76,0.76,0.76
372.83,1.18,1.18,0.41,0.41,-0.41,-0.40,-0.07,0.77,0.77,0.77
376.56,1.19,1.19,0.42,0.42,-0.42,-0.41,-0.06,0.77,0.78,0.77
380.33,1.21,1.21,0.43,0.43,-0.43,-0.42,-0.05,0.79,0.78,0.78
384.13,1.21,1.21,0.44,0.43,-0.43,-0.42,-0.04,0.78,0.78,0.78
387.97,1.22,1.22,0.44,0.43,-0.44,-0.43,-0.03,0.78,0.78,0.78
391.85,1.22,1.23,0.42,0.43,-0.44,-0.44,-0.02,0.78,0.79,0.80
395.77,1.23,1.24,0.43,0.44,-0.44,-0.44,-0.01,0.79,0.80,0.80
399.73,1.26,1.25,0.45,0.44,-0.43,-0.44,0.00,0.83,0.81,0.81
403.72,1.25,1.25,0.44,0.44,-0.43,-0.44,0.01,0.82,0.82,0.82
407.76,1.24,1.24,0.43,0.43,-0.43,-0.44,0.02,0.81,0.82,0.81
411.84,1.23,1.23,0.41,0.41,-0.42,-0.44,0.03,0.81,0.81,0.82
415.96,1.23,1.23,0.40,0.41,-0.42,-0.43,0.04,0.81,0.82,0.83
420.12,1.24,1.24,0.41,0.41,-0.41,-0.42,0.05,0.83,0.83,0.83
424.32,1.25,1.25,0.41,0.41,-0.40,-0.41,0.06,0.85,0.85,0.84
428.56,1.24,1.24,0.40,0.40,-0.38,-0.40,0.07,0.86,0.86,0.85
432.85,1.23,1.23,0.38,0.38,-0.36,-0.38,0.08,0.87,0.86,0.85
437.18,1.20,1.21,0.35,0.35,-0.35,-0.36,0.09,0.86,0.86,0.85
441.55,1.19,1.18,0.33,0.32,-0.32,-0.34,0.10,0.87,0.86,0.86
445.96,1.16,1.16,0.29,0.29,-0.30,-0.31,0.11,0.86,0.86,0.87
450.42,1.13,1.14,0.24,0.26,-0.28,-0.28,0.13,0.86,0.87,0.89
454.93,1.14,1.13,0.24,0.24,-0.25,-0.25,0.14,0.89,0.88,0.90
459.48,1.13,1.13,0.22,0.23,-0.22,-0.22,0.15,0.91,0.91,0.91
464.07,1.12,1.12,0.22,0.21,-0.20,-0.19,0.16,0.92,0.92,0.90
468.71,1.10,1.09,0.19,0.18,-0.17,-0.15,0.17,0.93,0.92,0.91
473.40,1.06,1.07,0.14,0.15,-0.14,-0.11,0.19,0.92,0.93,0.92
478.13,1.04,1.05,0.11,0.11,-0.11,-0.07,0.20,0.93,0.93,0.93
482.91,1.03,1.02,0.09,0.08,-0.08,-0.03,0.21,0.95,0.94,0.94
487.74,0.99,0.99,0.04,0.04,-0.04,0.01,0.22,0.95,0.95,0.95
492.62,0.95,0.96,-0.01,0.00,-0.00,0.05,0.24,0.95,0.96,0.96
497.55,0.93,0.92,-0.04,-0.04,0.04,0.09,0.25,0.97,0.96,0.97
502.52,0.90,0.90,-0.08,-0.08,0.08,0.13,0.27,0.98,0.97,0.98
507.55,0.86,0.87,-0.14,-0.12,0.12,0.17,0.28,0.98,0.99,1.00
512.62,0.85,0.85,-0.15,-0.16,0.16,0.22,0.30,1.01,1.01,1.01
517.75,0.83,0.82,-0.18,-0.19,0.20,0.26,0.31,1.03,1.02,1.01
522.93,0.79,0.79,-0.23,-0.23,0.24,0.30,0.33,1.03,1.03,1.02
528.16,0.75,0.75,-0.28,-0.28,0.28,0.34,0.35,1.03,1.03,1.03
