frequency,raw,smoothed,error,error_smoothed,equalization,parametric_eq,fixed_band_eq,equalized_raw,equalized_smoothed,target
20.00,6.48,6.48,-0.17,-0.17,0.17,-1.14,-0.58,6.65,6.66,6.66
20.20,6.51,6.51,-0.14,-0.15,0.15,-1.15,-0.60,6.66,6.66,6.66
20.40,6.53,6.54,-0.12,-0.12,0.13,-1.15,-0.61,6.66,6.66,6.66
20.61,6.56,6.56,-0.09,-0.09,0.10,-1.16,-0.63,6.66,6.66,6.66
20.81,6.59,6.59,-0.06,-0.07,0.06,-1.16,-0.65,6.66,6.65,6.65
21.02,6.62,6.62,-0.03,-0.03,0.03,-1.17,-0.67,6.65,6.65,6.65
21.23,6.65,6.66,-0.00,0.00,-0.01,-1.17,-0.69,6.64,6.65,6.65
21.44,6.70,6.70,0.05,0.05,-0.06,-1.18,-0.71,6.65,6.64,6.65
21.66,6.75,6.75,0.10,0.10,-0.11,-1.18,-0.73,6.64,6.64,6.65
21.87,6.80,6.81,0.15,0.16,-0.16,-1.19,-0.75,6.64,6.64,6.65
22.09,6.86,6.87,0.21,0.22,-0.22,-1.19,-0.77,6.64,6.65,6.65
22.31,6.93,6.93,0.28,0.28,-0.28,-1.20,-0.79,6.66,6.65,6.65
22.54,6.99,6.99,0.34,0.34,-0.33,-1.20,-0.81,6.66,6.66,6.65
22.76,7.04,7.05,0.40,0.40,-0.39,-1.21,-0.83,6.65,6.66,6.65
22.99,7.10,7.09,0.46,0.45,-0.44,-1.22,-0.86,6.66,6.66,6.65
23.22,7.13,7.14,0.49,0.49,-0.48,-1.22,-0.88,6.65,6.65,6.65
23.45,7.17,7.17,0.53,0.53,-0.52,-1.23,-0.91,6.65,6.65,6.64
23.69,7.20,7.20,0.56,0.56,-0.56,-1.24,-0.93,6.64,6.64,6.64
23.92,7.23,7.23,0.59,0.59,-0.59,-1.24,-0.96,6.64,6.64,6.64
24.16,7.26,7.26,0.62,0.62,-0.63,-1.25,-0.98,6.63,6.63,6.64
24.40,7.30,7.30,0.66,0.66,-0.67,-1.26,-1.01,6.63,6.63,6.64
24.65,7.34,7.34,0.70,0.71,-0.71,-1.26,-1.03,6.63,6.63,6.64
24.89,7.39,7.39,0.76,0.75,-0.76,-1.27,-1.06,6.63,6.63,6.64
25.14,7.44,7.44,0.81,0.81,-0.81,-1.28,-1.09,6.63,6.63,6.64
25.39,7.49,7.50,0.86,0.86,-0.86,-1.29,-1.12,6.63,6.63,6.63
25.65,7.55,7.55,0.92,0.92,-0.92,-1.29,-1.14,6.64,6.63,6.63
25.91,7.60,7.60,0.97,0.97,-0.97,-1.30,-1.17,6.63,6.63,6.63
26.16,7.65,7.65,1.02,1.02,-1.02,-1.31,-1.20,6.63,6.63,6.63
26.43,7.70,7.70,1.07,1.07,-1.07,-1.32,-1.23,6.63,6.63,6.63
26.69,7.74,7.74,1.12,1.12,-1.11,-1.33,-1.26,6.63,6.63,6.63
26.96,7.78,7.78,1.16,1.16,-1.15,-1.34,-1.28,6.63,6.63,6.62
27.23,7.82,7.82,1.20,1.19,-1.19,-1.35,-1.31,6.63,6.63,6.62
27.50,7.84,7.84,1.22,1.22,-1.22,-1.36,-1.34,6.62,6.62,6.62
27.77,7.86,7.86,1.24,1.25,-1.25,-1.37,-1.36,6.62,6.62,6.62
28.05,7.88,7.88,1.27,1.27,-1.27,-1.38,-1.39,6.61,6.61,6.62
28.33,7.91,7.91,1.30,1.29,-1.30,-1.39,-1.41,6.61,6.61,6.62
28.62,7.93,7.93,1.32,1.32,-1.32,-1.40,-1.44,6.61,6.61,6.61
28.90,7.96,7.96,1.35,1.35,-1.35,-1.41,-1.46,6.61,6.61,6.61
29.19,7.98,7.98,1.37,1.38,-1.38,-1.42,-1.48,6.60,6.61,6.61
29.48,8.01,8.01,1.41,1.41,-1.41,-1.43,-1.50,6.60,6.60,6.61
29.78,8.04,8.04,1.44,1.44,-1.44,-1.45,-1.52,6.60,6.60,6.60
30.08,8.07,8.07,1.47,1.47,-1.47,-1.46,-1.54,6.60,6.60,6.60
30.38,8.10,8.10,1.50,1.50,-1.50,-1.47,-1.55,6.60,6.60,6.60
30.68,8.13,8.13,1.54,1.54,-1.54,-1.49,-1.57,6.60,6.60,6.60
30.99,8.16,8.16,1.57,1.57,-1.57,-1.50,-1.58,6.59,6.59,6.59
31.30,8.19,8.19,1.60,1.60,-1.60,-1.51,-1.59,6.59,6.59,6.59
31.61,8.22,8.22,1.64,1.64,-1.64,-1.53,-1.61,6.58,6.58,6.59
31.93,8.25,8.25,1.67,1.67,-1.67,-1.54,-1.61,6.58,6.58,6.58
32.24,8.28,8.28,1.70,1.70,-1.70,-1.56,-1.62,6.58,6.58,6.58
32.57,8.31,8.31,1.74,1.73,-1.73,-1.58,-1.63,6.58,6.58,6.58
32.89,8.33,8.34,1.76,1.76,-1.76,-1.59,-1.63,6.57,6.57,6.57
33.22,8.36,8.36,1.79,1.79,-1.79,-1.61,-1.64,6.57,6.57,6.57
33.55,8.38,8.38,1.82,1.81,-1.81,-1.63,-1.64,6.57,6.56,6.56
33.89,8.39,8.40,1.83,1.84,-1.83,-1.64,-1.64,6.56,6.56,6.56
34.23,8.41,8.41,1.86,1.85,-1.85,-1.66,-1.65,6.56,6.56,6.56
34.57,8.42,8.42,1.87,1.87,-1.86,-1.68,-1.65,6.56,6.56,6.55
34.92,8.42,8.42,1.87,1.88,-1.87,-1.70,-1.65,6.55,6.55,6.55
35.27,8.42,8.42,1.88,1.88,-1.88,-1.72,-1.65,6.55,6.55,6.54
35.62,8.42,8.42,1.88,1.88,-1.88,-1.74,-1.64,6.54,6.53,6.54
35.97,8.41,8.42,1.88,1.88,-1.89,-1.76,-1.64,6.52,6.53,6.53
36.33,8.41,8.42,1.89,1.89,-1.90,-1.78,-1.64,6.52,6.52,6.53
36.70,8.42,8.42,1.90,1.90,-1.91,-1.80,-1.64,6.52,6.51,6.52
37.06,8.43,8.43,1.92,1.92,-1.92,-1.82,-1.64,6.51,6.51,6.52
37.43,8.44,8.44,1.93,1.93,-1.93,-1.84,-1.64,6.51,6.51,6.51
37.81,8.45,8.45,1.95,1.95,-1.94,-1.87,-1.64,6.51,6.51,6.50
38.19,8.46,8.46,1.96,1.96,-1.96,-1.89,-1.64,6.50,6.50,6.50
38.57,8.47,8.47,1.98,1.98,-1.97,-1.91,-1.64,6.50,6.50,6.49
38.95,8.47,8.48,1.99,1.99,-1.99,-1.93,-1.64,6.48,6.48,6.48
39.34,8.48,8.48,2.00,2.00,-2.01,-1.95,-1.64,6.48,6.47,6.48
39.74,8.48,8.48,2.01,2.01,-2.02,-1.97,-1.65,6.46,6.46,6.47
40.14,8.49,8.49,2.03,2.03,-2.03,-1.99,-1.65,6.46,6.46,6.46
40.54,8.50,8.50,2.05,2.05,-2.05,-2.01,-1.66,6.46,6.46,6.45
40.94,8.51,8.51,2.07,2.06,-2.06,-2.03,-1.66,6.45,6.45,6.45
41.35,8.51,8.51,2.07,2.08,-2.07,-2.04,-1.67,6.44,6.44,6.44
41.76,8.51,8.51,2.08,2.08,-2.08,-2.06,-1.68,6.43,6.43,6.43
42.18,8.51,8.51,2.09,2.09,-2.09,-2.08,-1.69,6.42,6.42,6.42
42.60,8.50,8.51,2.09,2.10,-2.10,-2.09,-1.70,6.40,6.41,6.41
43.03,8.50,8.51,2.10,2.10,-2.11,-2.10,-1.71,6.39,6.40,6.40
43.46,8.51,8.50,2.12,2.11,-2.12,-2.12,-1.72,6.40,6.39,6.39
43.90,8.50,8.51,2.12,2.12,-2.12,-2.13,-1.74,6.38,6.38,6.38
44.33,8.50,8.50,2.13,2.13,-2.13,-2.14,-1.75,6.37,6.37,6.37
44.78,8.50,8.50,2.14,2.14,-2.14,-2.15,-1.77,6.36,6.36,6.36
45.23,8.50,8.50,2.16,2.15,-2.15,-2.16,-1.79,6.35,6.35,6.35
45.68,8.49,8.50,2.16,2.16,-2.16,-2.16,-1.81,6.33,6.34,6.34
46.13,8.49,8.49,2.17,2.17,-2.17,-2.17,-1.83,6.32,6.32,6.32
46.60,8.48,8.49,2.17,2.18,-2.18,-2.18,-1.85,6.31,6.31,6.31
47.06,8.48,8.48,2.19,2.18,-2.18,-2.18,-1.88,6.30,6.30,6.30
47.53,8.47,8.47,2.19,2.19,-2.19,-2.19,-1.90,6.28,6.28,6.28
48.01,8.46,8.46,2.19,2.20,-2.20,-2.19,-1.93,6.27,6.27,6.27
48.49,8.45,8.46,2.20,2.20,-2.20,-2.20,-1.96,6.25,6.25,6.25
48.97,8.45,8.45,2.21,2.21,-2.21,-2.20,-1.98,6.25,6.24,6.24
49.46,8.43,8.44,2.21,2.21,-2.21,-2.21,-2.01,6.22,6.22,6.22
49.96,8.42,8.42,2.22,2.22,-2.22,-2.21,-2.04,6.20,6.20,6.21
50.46,8.41,8.41,2.22,2.22,-2.23,-2.22,-2.07,6.19,6.19,6.19
50.96,8.40,8.40,2.23,2.23,-2.23,-2.22,-2.11,6.17,6.17,6.17
51.47,8.39,8.39,2.24,2.24,-2.24,-2.23,-2.14,6.16,6.16,6.15
51.99,8.38,8.38,2.25,2.25,-2.24,-2.23,-2.17,6.14,6.14,6.13
52.51,8.36,8.37,2.25,2.25,-2.25,-2.24,-2.20,6.11,6.12,6.12
53.03,8.35,8.35,2.26,2.25,-2.26,-2.25,-2.24,6.10,6.10,6.10
53.56,8.33,8.33,2.26,2.26,-2.26,-2.26,-2.27,6.07,6.07,6.07
54.10,8.32,8.32,2.27,2.27,-2.27,-2.26,-2.30,6.06,6.05,6.05
54.64,8.30,8.31,2.27,2.27,-2.27,-2.27,-2.34,6.03,6.03,6.03
55.18,8.29,8.29,2.28,2.28,-2.28,-2.28,-2.37,6.01,6.01,6.01
55.74,8.27,8.27,2.29,2.29,-2.29,-2.29,-2.40,5.99,5.99,5.99
56.29,8.25,8.25,2.29,2.29,-2.29,-2.30,-2.43,5.96,5.96,5.96
56.86,8.23,8.24,2.30,2.30,-2.30,-2.31,-2.46,5.93,5.93,5.94
57.42,8.22,8.22,2.31,2.31,-2.31,-2.32,-2.49,5.91,5.91,5.91
58.00,8.20,8.20,2.32,2.32,-2.32,-2.33,-2.52,5.89,5.89,5.88
58.58,8.18,8.18,2.32,2.33,-2.32,-2.34,-2.55,5.86,5.86,5.86
59.16,8.16,8.16,2.33,2.33,-2.33,-2.36,-2.57,5.83,5.83,5.83
59.76,8.14,8.14,2.34,2.34,-2.34,-2.37,-2.60,5.80,5.80,5.80
60.35,8.12,8.12,2.35,2.35,-2.35,-2.38,-2.62,5.77,5.77,5.77
60.96,8.09,8.10,2.35,2.36,-2.36,-2.40,-2.64,5.74,5.74,5.74
61.57,8.07,8.07,2.36,2.36,-2.36,-2.41,-2.65,5.71,5.71,5.71
62.18,8.05,8.05,2.38,2.37,-2.37,-2.43,-2.67,5.68,5.68,5.68
62.80,8.02,8.03,2.38,2.38,-2.38,-2.44,-2.68,5.64,5.64,5.64
63.43,8.00,8.00,2.39,2.39,-2.39,-2.46,-2.69,5.61,5.61,5.61
64.07,7.97,7.97,2.40,2.40,-2.40,-2.48,-2.70,5.57,5.57,5.57
64.71,7.95,7.95,2.41,2.41,-2.41,-2.49,-2.71,5.54,5.54,5.54
65.35,7.92,7.93,2.42,2.42,-2.42,-2.51,-2.72,5.50,5.50,5.50
66.01,7.90,7.90,2.44,2.44,-2.44,-2.53,-2.72,5.47,5.46,5.46
66.67,7.87,7.87,2.45,2.45,-2.45,-2.55,-2.72,5.42,5.42,5.42
67.33,7.84,7.85,2.46,2.46,-2.46,-2.57,-2.73,5.38,5.38,5.38
68.01,7.82,7.82,2.48,2.48,-2.48,-2.59,-2.73,5.35,5.34,5.34
68.69,7.79,7.79,2.49,2.49,-2.49,-2.60,-2.72,5.30,5.30,5.30
69.37,7.76,7.76,2.50,2.51,-2.51,-2.62,-2.72,5.26,5.26,5.26
70.07,7.73,7.73,2.52,2.52,-2.52,-2.64,-2.72,5.21,5.21,5.21
70.77,7.70,7.70,2.53,2.53,-2.54,-2.67,-2.72,5.17,5.17,5.17
71.48,7.67,7.67,2.55,2.55,-2.55,-2.69,-2.71,5.12,5.12,5.12
72.19,7.64,7.64,2.57,2.57,-2.57,-2.71,-2.71,5.07,5.08,5.07
72.91,7.61,7.61,2.59,2.59,-2.58,-2.73,-2.71,5.03,5.03,5.03
73.64,7.58,7.58,2.60,2.60,-2.60,-2.75,-2.70,4.98,4.98,4.98
74.38,7.54,7.55,2.62,2.62,-2.62,-2.77,-2.70,4.92,4.93,4.93
75.12,7.51,7.51,2.64,2.64,-2.64,-2.80,-2.70,4.88,4.88,4.88
75.87,7.48,7.48,2.66,2.66,-2.66,-2.82,-2.70,4.83,4.82,4.82
76.63,7.44,7.44,2.67,2.67,-2.68,-2.84,-2.70,4.77,4.77,4.77
77.40,7.41,7.41,2.70,2.69,-2.70,-2.86,-2.70,4.72,4.71,4.72
78.17,7.37,7.38,2.71,2.72,-2.72,-2.89,-2.70,4.66,4.66,4.66
78.95,7.34,7.34,2.74,2.74,-2.74,-2.91,-2.71,4.60,4.61,4.60
79.74,7.31,7.31,2.77,2.76,-2.76,-2.94,-2.71,4.55,4.55,4.55
80.54,7.27,7.27,2.78,2.78,-2.78,-2.96,-2.72,4.49,4.49,4.49
81.35,7.23,7.24,2.80,2.81,-2.81,-2.98,-2.73,4.43,4.43,4.43
82.16,7.20,7.20,2.83,2.83,-2.83,-3.01,-2.74,4.37,4.37,4.37
82.98,7.16,7.16,2.85,2.85,-2.86,-3.03,-2.75,4.31,4.31,4.31
83.81,7.12,7.13,2.88,2.88,-2.88,-3.06,-2.77,4.24,4.25,4.25
84.65,7.09,7.09,2.91,2.91,-2.90,-3.08,-2.78,4.19,4.18,4.18
85.50,7.05,7.05,2.93,2.93,-2.93,-3.11,-2.80,4.12,4.12,4.12
86.35,7.01,7.01,2.96,2.96,-2.96,-3.13,-2.82,4.06,4.06,4.06
87.22,6.97,6.97,2.98,2.98,-2.98,-3.16,-2.85,3.99,3.99,3.99
88.09,6.93,6.93,3.01,3.01,-3.01,-3.19,-2.87,3.92,3.92,3.92
88.97,6.89,6.89,3.03,3.03,-3.04,-3.21,-2.90,3.86,3.86,3.86
89.86,6.85,6.85,3.06,3.06,-3.06,-3.24,-2.93,3.79,3.79,3.79
90.76,6.81,6.81,3.09,3.09,-3.09,-3.26,-2.97,3.72,3.72,3.72
91.66,6.77,6.77,3.12,3.12,-3.12,-3.29,-3.00,3.65,3.65,3.65
92.58,6.73,6.73,3.15,3.15,-3.15,-3.31,-3.04,3.58,3.58,3.58
93.51,6.69,6.69,3.18,3.18,-3.18,-3.34,-3.07,3.52,3.52,3.51
94.44,6.65,6.65,3.21,3.21,-3.21,-3.37,-3.12,3.45,3.45,3.44
95.39,6.61,6.61,3.24,3.24,-3.23,-3.39,-3.16,3.38,3.37,3.37
96.34,6.56,6.57,3.26,3.26,-3.26,-3.42,-3.20,3.30,3.30,3.30
97.30,6.52,6.52,3.29,3.29,-3.29,-3.44,-3.25,3.23,3.23,3.23
98.28,6.48,6.48,3.32,3.32,-3.32,-3.47,-3.30,3.16,3.16,3.16
99.26,6.43,6.44,3.35,3.35,-3.35,-3.49,-3.35,3.08,3.09,3.09
100.25,6.39,6.39,3.38,3.38,-3.38,-3.52,-3.40,3.01,3.01,3.01
101.25,6.35,6.35,3.41,3.41,-3.41,-3.55,-3.45,2.95,2.94,2.94
102.27,6.30,6.31,3.43,3.44,-3.44,-3.57,-3.50,2.87,2.87,2.87
103.29,6.26,6.26,3.47,3.46,-3.46,-3.60,-3.56,2.80,2.80,2.80
104.32,6.21,6.21,3.49,3.49,-3.49,-3.62,-3.61,2.72,2.72,2.72
105.37,6.17,6.17,3.52,3.52,-3.52,-3.64,-3.66,2.65,2.65,2.65
106.42,6.12,6.13,3.55,3.55,-3.55,-3.67,-3.72,2.57,2.58,2.58
107.48,6.08,6.08,3.58,3.58,-3.57,-3.69,-3.77,2.51,2.50,2.50
108.56,6.03,6.03,3.60,3.60,-3.60,-3.72,-3.82,2.43,2.43,2.43
109.64,5.98,5.99,3.62,3.63,-3.63,-3.74,-3.88,2.35,2.36,2.36
110.74,5.94,5.94,3.66,3.65,-3.66,-3.76,-3.93,2.29,2.28,2.29
111.85,5.89,5.90,3.68,3.68,-3.68,-3.79,-3.98,2.21,2.21,2.21
112.97,5.85,5.85,3.71,3.71,-3.71,-3.81,-4.02,2.15,2.14,2.14
114.10,5.80,5.80,3.73,3.73,-3.73,-3.83,-4.07,2.07,2.07,2.07
115.24,5.75,5.75,3.75,3.76,-3.76,-3.85,-4.11,2.00,2.00,2.00
116.39,5.70,5.71,3.77,3.78,-3.78,-3.87,-4.14,1.92,1.93,1.93
117.55,5.66,5.66,3.81,3.80,-3.80,-3.89,-4.18,1.86,1.86,1.86
118.73,5.61,5.61,3.83,3.82,-3.82,-3.91,-4.21,1.79,1.79,1.79
119.92,5.56,5.56,3.84,3.85,-3.84,-3.93,-4.23,1.72,1.72,1.72
121.12,5.51,5.51,3.86,3.86,-3.86,-3.95,-4.26,1.65,1.65,1.65
122.33,5.46,5.46,3.88,3.88,-3.88,-3.97,-4.27,1.58,1.58,1.58
123.55,5.41,5.42,3.90,3.90,-3.90,-3.98,-4.29,1.51,1.51,1.51
124.79,5.37,5.37,3.93,3.92,-3.92,-4.00,-4.29,1.45,1.45,1.45
126.03,5.32,5.32,3.94,3.94,-3.94,-4.02,-4.30,1.38,1.38,1.38
127.29,5.27,5.27,3.96,3.96,-3.96,-4.03,-4.29,1.32,1.32,1.31
128.57,5.22,5.22,3.97,3.97,-3.97,-4.04,-4.29,1.25,1.25,1.25
129.85,5.17,5.17,3.99,3.99,-3.99,-4.06,-4.28,1.19,1.19,1.19
131.15,5.12,5.12,4.00,4.00,-4.00,-4.07,-4.26,1.12,1.12,1.12
132.46,5.07,5.07,4.01,4.01,-4.01,-4.08,-4.24,1.06,1.06,1.06
133.79,5.02,5.02,4.02,4.02,-4.02,-4.09,-4.22,1.00,1.00,1.00
135.12,4.97,4.97,4.03,4.03,-4.03,-4.10,-4.19,0.94,0.94,0.94
136.48,4.92,4.92,4.04,4.04,-4.04,-4.11,-4.16,0.88,0.88,0.88
137.84,4.87,4.87,4.05,4.05,-4.05,-4.12,-4.12,0.82,0.82,0.82
139.22,4.82,4.82,4.06,4.06,-4.06,-4.12,-4.09,0.76,0.76,0.76
140.61,4.77,4.77,4.07,4.07,-4.07,-4.13,-4.05,0.71,0.71,0.71
142.02,4.72,4.72,4.07,4.07,-4.07,-4.13,-4.01,0.65,0.65,0.65
143.44,4.67,4.67,4.08,4.08,-4.08,-4.14,-3.97,0.60,0.60,0.60
144.87,4.62,4.62,4.08,4.08,-4.08,-4.14,-3.93,0.54,0.55,0.54
146.32,4.57,4.57,4.08,4.08,-4.08,-4.14,-3.88,0.49,0.49,0.49
147.78,4.52,4.52,4.08,4.08,-4.08,-4.14,-3.84,0.44,0.44,0.44
149.26,4.46,4.47,4.07,4.08,-4.08,-4.14,-3.80,0.39,0.39,0.39
150.75,4.41,4.41,4.07,4.07,-4.07,-4.14,-3.75,0.34,0.34,0.34
152.26,4.36,4.36,4.07,4.07,-4.07,-4.13,-3.71,0.29,0.29,0.29
153.78,4.31,4.31,4.07,4.07,-4.07,-4.13,-3.67,0.24,0.24,0.24
155.32,4.26,4.26,4.07,4.06,-4.07,-4.12,-3.63,0.20,0.19,0.20
156.88,4.21,4.21,4.06,4.06,-4.06,-4.11,-3.59,0.15,0.15,0.15
158.44,4.16,4.17,4.06,4.06,-4.06,-4.11,-3.55,0.10,0.10,0.11
160.03,4.12,4.12,4.06,4.06,-4.06,-4.10,-3.51,0.06,0.06,0.06
161.63,4.07,4.07,4.06,4.06,-4.05,-4.09,-3.48,0.02,0.02,0.01
163.24,4.02,4.02,4.05,4.05,-4.05,-4.07,-3.44,-0.03,-0.03,-0.03
164.88,3.97,3.97,4.04,4.04,-4.04,-4.06,-3.42,-0.07,-0.07,-0.07
166.53,3.92,3.92,4.03,4.03,-4.03,-4.05,-3.39,-0.11,-0.11,-0.11
168.19,3.87,3.87,4.02,4.02,-4.02,-4.03,-3.36,-0.15,-0.15,-0.15
169.87,3.82,3.82,4.01,4.01,-4.01,-4.02,-3.34,-0.19,-0.19,-0.19
171.57,3.77,3.77,3.99,3.99,-4.00,-4.00,-3.32,-0.22,-0.22,-0.22
173.29,3.72,3.72,3.98,3.98,-3.98,-3.98,-3.30,-0.26,-0.26,-0.26
175.02,3.67,3.67,3.96,3.96,-3.96,-3.96,-3.28,-0.29,-0.29,-0.29
176.77,3.62,3.62,3.95,3.95,-3.95,-3.94,-3.27,-0.33,-0.33,-0.33
178.54,3.57,3.57,3.93,3.93,-3.93,-3.92,-3.26,-0.36,-0.36,-0.36
180.32,3.52,3.52,3.91,3.91,-3.91,-3.89,-3.25,-0.39,-0.39,-0.39
182.13,3.47,3.47,3.89,3.89,-3.89,-3.87,-3.24,-0.42,-0.42,-0.42
183.95,3.42,3.42,3.87,3.87,-3.87,-3.85,-3.24,-0.45,-0.45,-0.45
185.79,3.37,3.37,3.85,3.85,-3.85,-3.82,-3.24,-0.48,-0.48,-0.48
187.65,3.32,3.32,3.83,3.83,-3.83,-3.80,-3.24,-0.51,-0.51,-0.51
189.52,3.27,3.27,3.81,3.81,-3.81,-3.77,-3.24,-0.54,-0.54,-0.54
191.42,3.22,3.22,3.78,3.78,-3.79,-3.74,-3.25,-0.56,-0.56,-0.56
193.33,3.17,3.17,3.76,3.76,-3.76,-3.71,-3.26,-0.59,-0.59,-0.59
195.27,3.12,3.12,3.74,3.74,-3.74,-3.68,-3.27,-0.62,-0.62,-0.61
197.22,3.08,3.08,3.72,3.72,-3.72,-3.65,-3.28,-0.64,-0.64,-0.64
199.19,3.03,3.03,3.69,3.70,-3.70,-3.62,-3.29,-0.66,-0.66,-0.66
201.18,2.99,2.99,3.68,3.67,-3.67,-3.59,-3.31,-0.68,-0.68,-0.68
203.19,2.94,2.95,3.65,3.65,-3.65,-3.56,-3.32,-0.71,-0.71,-0.71
205.23,2.90,2.90,3.63,3.63,-3.63,-3.52,-3.34,-0.73,-0.73,-0.73
207.28,2.86,2.86,3.61,3.61,-3.61,-3.49,-3.36,-0.74,-0.75,-0.75
209.35,2.81,2.82,3.58,3.58,-3.58,-3.46,-3.38,-0.77,-0.77,-0.77
211.44,2.77,2.77,3.56,3.56,-3.56,-3.42,-3.40,-0.79,-0.79,-0.79
213.56,2.72,2.72,3.53,3.53,-3.53,-3.39,-3.42,-0.81,-0.81,-0.81
215.69,2.68,2.68,3.51,3.51,-3.51,-3.35,-3.43,-0.82,-0.83,-0.83
217.85,2.63,2.63,3.48,3.48,-3.48,-3.32,-3.45,-0.85,-0.84,-0.84
220.03,2.59,2.59,3.45,3.45,-3.45,-3.28,-3.47,-0.86,-0.86,-0.86
222.23,2.54,2.55,3.42,3.42,-3.42,-3.24,-3.49,-0.88,-0.88,-0.88
224.45,2.50,2.50,3.40,3.40,-3.40,-3.21,-3.50,-0.89,-0.89,-0.89
226.70,2.46,2.46,3.37,3.37,-3.37,-3.17,-3.52,-0.91,-0.91,-0.91
228.96,2.41,2.42,3.34,3.34,-3.34,-3.13,-3.53,-0.93,-0.92,-0.92
231.25,2.37,2.37,3.31,3.31,-3.31,-3.10,-3.54,-0.94,-0.94,-0.94
233.57,2.33,2.33,3.28,3.28,-3.28,-3.06,-3.55,-0.95,-0.96,-0.95
235.90,2.28,2.29,3.26,3.26,-3.25,-3.02,-3.55,-0.97,-0.97,-0.98
238.26,2.24,2.24,3.23,3.23,-3.23,-2.98,-3.55,-0.98,-0.98,-0.99
240.64,2.19,2.19,3.19,3.20,-3.19,-2.95,-3.55,-1.00,-1.00,-1.00
243.05,2.15,2.15,3.17,3.16,-3.16,-2.91,-3.54,-1.01,-1.01,-1.01
245.48,2.10,2.10,3.13,3.13,-3.13,-2.87,-3.53,-1.03,-1.03,-1.02
247.93,2.06,2.06,3.10,3.10,-3.10,-2.83,-3.52,-1.03,-1.04,-1.04
250.41,2.01,2.01,3.06,3.06,-3.06,-2.79,-3.50,-1.05,-1.05,-1.05
252.92,1.97,1.97,3.03,3.03,-3.03,-2.76,-3.47,-1.05,-1.06,-1.06
255.45,1.92,1.92,2.99,2.99,-2.99,-2.72,-3.45,-1.07,-1.07,-1.07
258.00,1.88,1.88,2.96,2.96,-2.96,-2.68,-3.42,-1.08,-1.08,-1.08
260.58,1.83,1.84,2.92,2.92,-2.92,-2.64,-3.38,-1.09,-1.09,-1.09
263.19,1.79,1.79,2.89,2.89,-2.89,-2.60,-3.34,-1.10,-1.10,-1.10
265.82,1.75,1.75,2.86,2.85,-2.85,-2.57,-3.30,-1.10,-1.11,-1.10
268.48,1.70,1.71,2.82,2.82,-2.82,-2.53,-3.26,-1.12,-1.11,-1.11
271.16,1.66,1.66,2.78,2.78,-2.78,-2.49,-3.21,-1.12,-1.12,-1.12
273.87,1.62,1.62,2.75,2.75,-2.75,-2.45,-3.16,-1.13,-1.13,-1.13
276.61,1.57,1.58,2.71,2.71,-2.71,-2.42,-3.10,-1.14,-1.14,-1.14
279.38,1.53,1.53,2.68,2.68,-2.67,-2.38,-3.05,-1.14,-1.14,-1.14
282.17,1.49,1.49,2.64,2.64,-2.64,-2.34,-2.99,-1.14,-1.15,-1.15
284.99,1.45,1.45,2.60,2.60,-2.60,-2.30,-2.93,-1.15,-1.15,-1.15
287.84,1.40,1.41,2.55,2.56,-2.56,-2.27,-2.87,-1.16,-1.15,-1.15
290.72,1.36,1.36,2.51,2.51,-2.52,-2.23,-2.80,-1.15,-1.15,-1.15
293.63,1.32,1.32,2.48,2.47,-2.48,-2.20,-2.74,-1.15,-1.16,-1.16
296.57,1.28,1.28,2.44,2.44,-2.44,-2.16,-2.67,-1.15,-1.15,-1.15
299.53,1.24,1.24,2.39,2.40,-2.39,-2.12,-2.61,-1.15,-1.15,-1.15
302.53,1.20,1.20,2.36,2.35,-2.35,-2.09,-2.54,-1.15,-1.15,-1.16
305.55,1.16,1.16,2.31,2.31,-2.32,-2.05,-2.48,-1.15,-1.15,-1.15
308.61,1.12,1.12,2.28,2.28,-2.28,-2.02,-2.41,-1.15,-1.15,-1.16
311.69,1.08,1.08,2.23,2.23,-2.24,-1.98,-2.34,-1.15,-1.15,-1.15
314.81,1.04,1.04,2.20,2.20,-2.20,-1.95,-2.28,-1.15,-1.15,-1.16
317.96,1.00,1.01,2.15,2.16,-2.16,-1.92,-2.21,-1.15,-1.15,-1.15
321.14,0.97,0.97,2.13,2.12,-2.12,-1.88,-2.15,-1.15,-1.15,-1.15
324.35,0.93,0.93,2.08,2.08,-2.08,-1.85,-2.09,-1.15,-1.15,-1.15
327.59,0.89,0.89,2.03,2.04,-2.04,-1.82,-2.03,-1.15,-1.15,-1.14
330.87,0.85,0.86,2.00,2.00,-2.00,-1.78,-1.96,-1.15,-1.15,-1.15
334.18,0.82,0.82,1.96,1.96,-1.96,-1.75,-1.90,-1.14,-1.14,-1.14
337.52,0.78,0.78,1.93,1.92,-1.92,-1.72,-1.85,-1.14,-1.14,-1.14
340.90,0.74,0.75,1.88,1.88,-1.88,-1.69,-1.79,-1.14,-1.14,-1.14
344.30,0.71,0.71,1.84,1.84,-1.84,-1.65,-1.73,-1.13,-1.13,-1.13
347.75,0.67,0.67,1.80,1.80,-1.80,-1.62,-1.68,-1.13,-1.13,-1.12
351.23,0.64,0.64,1.77,1.76,-1.76,-1.59,-1.62,-1.12,-1.12,-1.13
354.74,0.60,0.61,1.71,1.72,-1.72,-1.56,-1.57,-1.12,-1.12,-1.11
358.28,0.57,0.57,1.69,1.68,-1.68,-1.53,-1.52,-1.11,-1.11,-1.11
361.87,0.54,0.54,1.65,1.65,-1.64,-1.50,-1.46,-1.10,-1.10,-1.11
365.49,0.50,0.51,1.60,1.61,-1.60,-1.47,-1.42,-1.10,-1.10,-1.10
369.14,0.47,0.47,1.57,1.57,-1.57,-1.44,-1.37,-1.09,-1.10,-1.10
372.83,0.43,0.43,1.52,1.52,-1.53,-1.41,-1.32,-1.10,-1.09,-1.08
376.56,0.40,0.40,1.49,1.49,-1.49,-1.38,-1.27,-1.09,-1.09,-1.09
380.33,0.37,0.37,1.45,1.45,-1.45,-1.35,-1.23,-1.08,-1.08,-1.08
384.13,0.34,0.34,1.42,1.42,-1.42,-1.32,-1.18,-1.07,-1.07,-1.08
387.97,0.31,0.31,1.39,1.38,-1.38,-1.29,-1.14,-1.07,-1.07,-1.07
391.85,0.28,0.28,1.34,1.35,-1.34,-1.27,-1.10,-1.06,-1.06,-1.06
395.77,0.25,0.25,1.31,1.31,-1.31,-1.24,-1.06,-1.06,-1.06,-1.06
399.73,0.22,0.22,1.27,1.27,-1.27,-1.21,-1.02,-1.05,-1.05,-1.05
403.72,0.19,0.19,1.23,1.24,-1.24,-1.18,-0.98,-1.05,-1.05,-1.04
407.76,0.16,0.16,1.21,1.20,-1.20,-1.15,-0.94,-1.04,-1.04,-1.04
411.84,0.13,0.13,1.17,1.17,-1.17,-1.13,-0.91,-1.04,-1.04,-1.04
415.96,0.11,0.11,1.14,1.14,-1.14,-1.10,-0.87,-1.03,-1.03,-1.03
420.12,0.08,0.08,1.11,1.11,-1.11,-1.07,-0.84,-1.03,-1.03,-1.03
424.32,0.06,0.06,1.08,1.08,-1.08,-1.05,-0.80,-1.02,-1.02,-1.02
428.56,0.03,0.03,1.04,1.05,-1.05,-1.02,-0.77,-1.02,-1.01,-1.01
432.85,0.01,0.01,1.02,1.02,-1.02,-0.99,-0.74,-1.00,-1.01,-1.00
437.18,-0.02,-0.02,0.99,0.99,-0.98,-0.97,-0.71,-1.00,-1.00,-1.00
441.55,-0.04,-0.04,0.96,0.95,-0.95,-0.94,-0.68,-0.99,-0.99,-1.00
445.96,-0.07,-0.06,0.92,0.92,-0.92,-0.92,-0.65,-0.99,-0.98,-0.99
450.42,-0.09,-0.09,0.88,0.88,-0.89,-0.89,-0.62,-0.97,-0.97,-0.97
454.93,-0.11,-0.11,0.85,0.85,-0.85,-0.86,-0.60,-0.96,-0.97,-0.96
459.48,-0.14,-0.13,0.81,0.82,-0.82,-0.84,-0.57,-0.96,-0.96,-0.95
464.07,-0.16,-0.16,0.79,0.79,-0.79,-0.81,-0.55,-0.95,-0.95,-0.95
468.71,-0.18,-0.18,0.77,0.76,-0.76,-0.79,-0.52,-0.94,-0.94,-0.94
473.40,-0.21,-0.20,0.73,0.73,-0.73,-0.76,-0.50,-0.94,-0.93,-0.93
478.13,-0.23,-0.23,0.70,0.70,-0.70,-0.74,-0.48,-0.93,-0.93,-0.93
482.91,-0.25,-0.25,0.67,0.67,-0.67,-0.71,-0.46,-0.92,-0.92,-0.92
487.74,-0.27,-0.27,0.64,0.64,-0.64,-0.69,-0.44,-0.91,-0.91,-0.91
492.62,-0.29,-0.29,0.61,0.61,-0.61,-0.66,-0.42,-0.89,-0.89,-0.90
497.55,-0.31,-0.31,0.58,0.58,-0.57,-0.64,-0.40,-0.88,-0.88,-0.89
502.52,-0.34,-0.33,0.54,0.54,-0.54,-0.61,-0.38,-0.88,-0.88,-0.88
507.55,-0.36,-0.36,0.50,0.51,-0.51,-0.58,-0.36,-0.87,-0.87,-0.86
512.62,-0.38,-0.38,0.47,0.47,-0.48,-0.56,-0.35,-0.86,-0.86,-0.85
