frequency,raw,smoothed,error,error_smoothed,equalization,parametric_eq,fixed_band_eq,equalized_raw,equalized_smoothed,target
20.00,10.39,10.38,5.85,5.84,-5.87,-5.42,-1.99,4.52,4.52,4.54
20.20,10.39,10.39,5.85,5.85,-5.86,-5.40,-2.05,4.53,4.53,4.54
20.40,10.39,10.39,5.85,5.85,-5.84,-5.39,-2.11,4.54,4.55,4.54
20.61,10.38,10.38,5.84,5.84,-5.83,-5.37,-2.17,4.55,4.55,4.54
20.81,10.36,10.36,5.82,5.82,-5.80,-5.35,-2.24,4.56,4.56,4.54
21.02,10.33,10.32,5.79,5.79,-5.77,-5.33,-2.30,4.56,4.55,4.54
21.23,10.28,10.28,5.74,5.74,-5.73,-5.32,-2.37,4.54,4.55,4.54
21.44,10.23,10.23,5.69,5.69,-5.69,-5.30,-2.44,4.54,4.54,4.54
21.66,10.17,10.17,5.63,5.63,-5.64,-5.28,-2.51,4.53,4.53,4.53
21.87,10.11,10.11,5.57,5.57,-5.58,-5.26,-2.59,4.53,4.53,4.53
22.09,10.05,10.04,5.51,5.51,-5.52,-5.24,-2.66,4.53,4.52,4.53
22.31,9.98,9.98,5.44,5.45,-5.46,-5.22,-2.74,4.52,4.53,4.53
22.54,9.92,9.92,5.39,5.39,-5.39,-5.20,-2.82,4.53,4.53,4.53
22.76,9.86,9.86,5.33,5.33,-5.32,-5.18,-2.90,4.54,4.54,4.53
22.99,9.79,9.78,5.26,5.26,-5.24,-5.16,-2.99,4.54,4.54,4.53
23.22,9.71,9.71,5.18,5.18,-5.17,-5.14,-3.07,4.54,4.54,4.53
23.45,9.62,9.62,5.09,5.09,-5.09,-5.12,-3.16,4.53,4.54,4.53
23.69,9.54,9.53,5.01,5.01,-5.01,-5.10,-3.25,4.53,4.53,4.53
23.92,9.45,9.45,4.92,4.92,-4.92,-5.08,-3.34,4.52,4.52,4.53
24.16,9.37,9.37,4.84,4.84,-4.85,-5.05,-3.44,4.52,4.52,4.52
24.40,9.29,9.29,4.76,4.77,-4.78,-5.03,-3.53,4.51,4.51,4.52
24.65,9.23,9.23,4.71,4.71,-4.72,-5.01,-3.63,4.51,4.51,4.52
24.89,9.18,9.18,4.66,4.66,-4.66,-4.98,-3.72,4.51,4.51,4.52
25.14,9.14,9.14,4.62,4.62,-4.62,-4.96,-3.82,4.51,4.51,4.52
25.39,9.11,9.11,4.59,4.59,-4.59,-4.93,-3.92,4.51,4.51,4.52
25.65,9.09,9.09,4.57,4.57,-4.57,-4.91,-4.02,4.51,4.51,4.52
25.91,9.08,9.08,4.56,4.56,-4.56,-4.88,-4.12,4.51,4.51,4.51
26.16,9.08,9.07,4.56,4.56,-4.56,-4.86,-4.21,4.51,4.51,4.51
26.43,9.08,9.08,4.57,4.57,-4.57,-4.83,-4.31,4.51,4.51,4.51
26.69,9.09,9.09,4.58,4.58,-4.58,-4.81,-4.41,4.51,4.51,4.51
26.96,9.11,9.10,4.60,4.59,-4.60,-4.78,-4.50,4.51,4.50,4.51
27.23,9.12,9.12,4.61,4.61,-4.62,-4.75,-4.59,4.50,4.50,4.51
27.50,9.14,9.14,4.63,4.64,-4.63,-4.72,-4.68,4.50,4.51,4.50
27.77,9.16,9.15,4.66,4.65,-4.65,-4.69,-4.77,4.51,4.50,4.50
28.05,9.17,9.17,4.67,4.67,-4.66,-4.67,-4.85,4.51,4.51,4.50
28.33,9.17,9.17,4.67,4.67,-4.67,-4.64,-4.93,4.50,4.50,4.50
28.62,9.17,9.17,4.67,4.67,-4.67,-4.61,-5.00,4.50,4.50,4.50
28.90,9.16,9.15,4.66,4.66,-4.66,-4.58,-5.06,4.50,4.50,4.49
29.19,9.13,9.13,4.64,4.64,-4.64,-4.55,-5.13,4.49,4.50,4.49
29.48,9.11,9.10,4.62,4.61,-4.61,-4.51,-5.18,4.50,4.49,4.49
29.78,9.07,9.07,4.58,4.58,-4.58,-4.48,-5.23,4.49,4.49,4.49
30.08,9.02,9.02,4.53,4.54,-4.54,-4.45,-5.26,4.48,4.48,4.48
30.38,8.97,8.97,4.49,4.49,-4.49,-4.42,-5.29,4.48,4.48,4.48
30.68,8.91,8.91,4.43,4.43,-4.43,-4.38,-5.31,4.47,4.47,4.48
30.99,8.85,8.85,4.37,4.38,-4.37,-4.35,-5.33,4.47,4.48,4.48
31.30,8.79,8.79,4.32,4.31,-4.31,-4.32,-5.33,4.48,4.48,4.47
31.61,8.72,8.72,4.25,4.25,-4.24,-4.28,-5.33,4.48,4.48,4.47
31.93,8.64,8.64,4.17,4.17,-4.17,-4.25,-5.31,4.47,4.47,4.47
32.24,8.56,8.56,4.09,4.10,-4.09,-4.21,-5.29,4.46,4.46,4.46
32.57,8.48,8.48,4.02,4.02,-4.02,-4.18,-5.26,4.46,4.45,4.46
32.89,8.40,8.40,3.94,3.94,-3.95,-4.14,-5.22,4.45,4.45,4.46
33.22,8.33,8.33,3.88,3.88,-3.89,-4.10,-5.17,4.44,4.44,4.45
33.55,8.27,8.27,3.82,3.82,-3.82,-4.06,-5.12,4.44,4.44,4.45
33.89,8.22,8.22,3.77,3.77,-3.77,-4.03,-5.05,4.45,4.44,4.44
34.23,8.17,8.17,3.73,3.73,-3.73,-3.99,-4.99,4.44,4.44,4.44
34.57,8.13,8.13,3.69,3.69,-3.69,-3.95,-4.92,4.43,4.43,4.43
34.92,8.09,8.09,3.66,3.66,-3.67,-3.91,-4.84,4.42,4.42,4.43
35.27,8.07,8.07,3.64,3.64,-3.65,-3.87,-4.76,4.42,4.42,4.43
35.62,8.05,8.05,3.63,3.63,-3.64,-3.83,-4.67,4.41,4.41,4.42
35.97,8.05,8.04,3.63,3.63,-3.63,-3.79,-4.58,4.41,4.41,4.42
36.33,8.04,8.04,3.63,3.63,-3.63,-3.74,-4.49,4.41,4.41,4.41
36.70,8.04,8.04,3.63,3.63,-3.63,-3.70,-4.40,4.41,4.41,4.40
37.06,8.03,8.03,3.63,3.63,-3.62,-3.66,-4.30,4.41,4.40,4.40
37.43,8.01,8.01,3.61,3.62,-3.61,-3.62,-4.21,4.40,4.40,4.39
37.81,7.99,7.99,3.60,3.60,-3.59,-3.57,-4.11,4.40,4.40,4.39
38.19,7.96,7.95,3.58,3.57,-3.56,-3.53,-4.01,4.40,4.39,4.38
38.57,7.91,7.91,3.53,3.53,-3.52,-3.48,-3.92,4.39,4.39,4.37
38.95,7.85,7.85,3.48,3.48,-3.47,-3.44,-3.82,4.37,4.37,4.37
39.34,7.78,7.78,3.42,3.42,-3.42,-3.39,-3.72,4.36,4.36,4.36
39.74,7.71,7.71,3.35,3.35,-3.36,-3.35,-3.63,4.35,4.35,4.35
40.14,7.63,7.63,3.28,3.29,-3.29,-3.30,-3.53,4.34,4.34,4.35
40.54,7.56,7.56,3.22,3.22,-3.22,-3.25,-3.44,4.34,4.33,4.34
40.94,7.48,7.48,3.15,3.15,-3.15,-3.20,-3.35,4.32,4.33,4.33
41.35,7.41,7.41,3.09,3.09,-3.09,-3.16,-3.26,4.32,4.32,4.32
41.76,7.34,7.33,3.02,3.02,-3.03,-3.11,-3.18,4.31,4.31,4.31
42.18,7.27,7.27,2.96,2.96,-2.97,-3.06,-3.09,4.30,4.30,4.30
42.60,7.20,7.20,2.90,2.91,-2.91,-3.01,-3.01,4.28,4.29,4.29
43.03,7.15,7.14,2.86,2.86,-2.86,-2.96,-2.92,4.29,4.28,4.28
43.46,7.09,7.09,2.81,2.81,-2.81,-2.91,-2.85,4.27,4.28,4.27
43.90,7.04,7.04,2.77,2.77,-2.77,-2.86,-2.77,4.27,4.27,4.26
44.33,6.98,6.98,2.72,2.73,-2.72,-2.81,-2.69,4.25,4.26,4.25
44.78,6.93,6.92,2.69,2.68,-2.68,-2.76,-2.62,4.24,4.24,4.24
45.23,6.87,6.87,2.64,2.64,-2.65,-2.71,-2.55,4.22,4.22,4.23
45.68,6.82,6.82,2.60,2.60,-2.61,-2.66,-2.48,4.21,4.21,4.22
46.13,6.78,6.77,2.57,2.57,-2.57,-2.61,-2.41,4.21,4.20,4.21
46.60,6.73,6.73,2.54,2.54,-2.54,-2.55,-2.35,4.19,4.19,4.19
47.06,6.69,6.68,2.51,2.50,-2.50,-2.50,-2.29,4.19,4.18,4.18
47.53,6.63,6.63,2.46,2.47,-2.46,-2.45,-2.22,4.16,4.17,4.17
48.01,6.58,6.58,2.43,2.42,-2.42,-2.40,-2.17,4.16,4.15,4.15
48.49,6.52,6.52,2.38,2.38,-2.38,-2.35,-2.11,4.14,4.14,4.14
48.97,6.46,6.46,2.34,2.34,-2.33,-2.29,-2.05,4.13,4.13,4.12
49.46,6.40,6.40,2.29,2.29,-2.28,-2.24,-2.00,4.11,4.11,4.11
49.96,6.33,6.32,2.24,2.23,-2.23,-2.19,-1.95,4.09,4.09,4.09
50.46,6.25,6.25,2.18,2.18,-2.19,-2.13,-1.90,4.06,4.06,4.07
50.96,6.17,6.17,2.11,2.12,-2.13,-2.08,-1.85,4.03,4.04,4.05
51.47,6.11,6.11,2.07,2.07,-2.08,-2.03,-1.80,4.03,4.03,4.04
51.99,6.05,6.05,2.03,2.03,-2.03,-1.98,-1.75,4.02,4.03,4.02
52.51,6.00,5.99,2.00,1.99,-1.97,-1.92,-1.71,4.03,4.02,4.00
53.03,5.92,5.91,1.94,1.93,-1.92,-1.87,-1.67,4.00,3.99,3.98
53.56,5.82,5.82,1.86,1.86,-1.86,-1.82,-1.62,3.95,3.96,3.96
54.10,5.73,5.74,1.79,1.80,-1.81,-1.77,-1.58,3.92,3.92,3.94
54.64,5.66,5.66,1.74,1.75,-1.76,-1.72,-1.54,3.90,3.90,3.91
55.18,5.60,5.59,1.71,1.70,-1.70,-1.66,-1.51,3.89,3.89,3.89
55.74,5.53,5.52,1.66,1.66,-1.65,-1.61,-1.47,3.88,3.87,3.87
56.29,5.45,5.45,1.60,1.61,-1.60,-1.56,-1.43,3.84,3.85,3.84
56.86,5.38,5.38,1.56,1.56,-1.56,-1.51,-1.39,3.82,3.82,3.82
57.42,5.31,5.31,1.51,1.51,-1.52,-1.46,-1.36,3.79,3.78,3.79
58.00,5.24,5.24,1.47,1.47,-1.48,-1.41,-1.32,3.76,3.76,3.77
58.58,5.18,5.18,1.44,1.44,-1.44,-1.36,-1.29,3.74,3.74,3.74
59.16,5.12,5.12,1.40,1.41,-1.40,-1.31,-1.26,3.72,3.72,3.71
59.76,5.06,5.05,1.37,1.37,-1.35,-1.27,-1.22,3.70,3.70,3.68
60.35,4.98,4.98,1.32,1.32,-1.31,-1.22,-1.19,3.67,3.67,3.65
60.96,4.89,4.89,1.26,1.27,-1.26,-1.17,-1.16,3.63,3.63,3.62
61.57,4.80,4.80,1.21,1.21,-1.21,-1.12,-1.12,3.59,3.59,3.59
62.18,4.71,4.71,1.15,1.15,-1.16,-1.08,-1.09,3.55,3.56,3.56
62.80,4.63,4.62,1.10,1.10,-1.10,-1.03,-1.06,3.53,3.52,3.53
63.43,4.54,4.54,1.05,1.04,-1.05,-0.99,-1.03,3.49,3.49,3.49
64.07,4.45,4.45,0.99,0.99,-1.00,-0.94,-1.00,3.45,3.46,3.46
64.71,4.37,4.37,0.95,0.95,-0.95,-0.90,-0.96,3.42,3.42,3.42
65.35,4.29,4.29,0.90,0.90,-0.91,-0.86,-0.93,3.38,3.38,3.38
66.01,4.21,4.21,0.86,0.87,-0.87,-0.82,-0.90,3.34,3.34,3.35
66.67,4.14,4.14,0.83,0.83,-0.84,-0.78,-0.87,3.30,3.30,3.31
67.33,4.07,4.07,0.80,0.80,-0.80,-0.74,-0.84,3.26,3.26,3.27
68.01,4.00,4.00,0.77,0.77,-0.77,-0.70,-0.81,3.22,3.22,3.23
68.69,3.93,3.93,0.74,0.74,-0.74,-0.66,-0.78,3.19,3.19,3.18
69.37,3.86,3.86,0.72,0.72,-0.71,-0.62,-0.75,3.15,3.15,3.14
70.07,3.78,3.78,0.68,0.68,-0.67,-0.58,-0.72,3.11,3.11,3.10
70.77,3.70,3.69,0.65,0.64,-0.63,-0.55,-0.68,3.07,3.06,3.05
71.48,3.60,3.60,0.59,0.59,-0.59,-0.51,-0.65,3.01,3.01,3.00
72.19,3.50,3.50,0.54,0.54,-0.55,-0.48,-0.62,2.95,2.95,2.96
72.91,3.40,3.40,0.49,0.49,-0.50,-0.45,-0.59,2.90,2.90,2.91
73.64,3.31,3.31,0.45,0.45,-0.46,-0.41,-0.56,2.85,2.85,2.86
74.38,3.23,3.23,0.42,0.42,-0.42,-0.38,-0.53,2.81,2.80,2.81
75.12,3.15,3.14,0.39,0.38,-0.39,-0.35,-0.50,2.76,2.76,2.76
75.87,3.06,3.06,0.35,0.35,-0.35,-0.32,-0.47,2.70,2.71,2.71
76.63,2.98,2.98,0.32,0.33,-0.32,-0.29,-0.44,2.65,2.65,2.65
77.40,2.90,2.90,0.30,0.30,-0.30,-0.26,-0.41,2.60,2.60,2.60
78.17,2.82,2.81,0.27,0.27,-0.27,-0.23,-0.38,2.55,2.55,2.54
78.95,2.73,2.73,0.24,0.24,-0.24,-0.20,-0.35,2.49,2.49,2.49
79.74,2.64,2.64,0.21,0.21,-0.21,-0.18,-0.32,2.43,2.43,2.43
80.54,2.55,2.55,0.18,0.18,-0.17,-0.15,-0.29,2.37,2.37,2.37
81.35,2.46,2.45,0.15,0.14,-0.14,-0.12,-0.26,2.32,2.31,2.31
82.16,2.36,2.36,0.11,0.11,-0.11,-0.10,-0.23,2.25,2.25,2.25
82.98,2.27,2.27,0.08,0.08,-0.08,-0.07,-0.20,2.18,2.19,2.19
83.81,2.18,2.18,0.05,0.05,-0.05,-0.05,-0.17,2.12,2.13,2.13
84.65,2.10,2.09,0.03,0.03,-0.03,-0.03,-0.14,2.07,2.07,2.07
85.50,2.01,2.01,0.01,0.00,-0.00,-0.00,-0.11,2.01,2.01,2.00
86.35,1.92,1.92,-0.02,-0.02,0.02,0.02,-0.07,1.94,1.94,1.94
87.22,1.83,1.83,-0.05,-0.05,0.05,0.04,-0.04,1.88,1.87,1.87
88.09,1.74,1.74,-0.07,-0.07,0.07,0.06,-0.01,1.81,1.81,1.81
88.97,1.65,1.65,-0.09,-0.09,0.09,0.08,0.02,1.74,1.74,1.74
89.86,1.56,1.56,-0.12,-0.12,0.11,0.10,0.05,1.67,1.67,1.67
90.76,1.47,1.47,-0.14,-0.13,0.13,0.12,0.08,1.60,1.60,1.61
91.66,1.39,1.38,-0.15,-0.15,0.15,0.14,0.11,1.54,1.54,1.54
92.58,1.30,1.30,-0.17,-0.17,0.17,0.16,0.14,1.47,1.47,1.47
93.51,1.21,1.21,-0.19,-0.19,0.19,0.18,0.17,1.40,1.40,1.40
94.44,1.12,1.12,-0.21,-0.21,0.21,0.20,0.20,1.33,1.33,1.33
95.39,1.03,1.02,-0.23,-0.23,0.24,0.22,0.23,1.26,1.26,1.26
96.34,0.93,0.93,-0.26,-0.26,0.26,0.24,0.27,1.19,1.19,1.19
97.30,0.83,0.83,-0.29,-0.28,0.28,0.26,0.30,1.11,1.11,1.11
98.28,0.74,0.73,-0.30,-0.31,0.31,0.28,0.33,1.04,1.04,1.04
99.26,0.64,0.64,-0.33,-0.33,0.33,0.29,0.36,0.97,0.97,0.97
100.25,0.55,0.54,-0.35,-0.35,0.35,0.31,0.39,0.90,0.90,0.90
101.25,0.45,0.45,-0.38,-0.37,0.37,0.33,0.42,0.82,0.82,0.82
102.27,0.36,0.36,-0.39,-0.40,0.39,0.34,0.45,0.75,0.75,0.75
103.29,0.27,0.26,-0.41,-0.42,0.41,0.36,0.48,0.68,0.68,0.68
104.32,0.17,0.17,-0.44,-0.43,0.43,0.38,0.51,0.60,0.60,0.61
105.37,0.09,0.08,-0.44,-0.45,0.45,0.39,0.54,0.54,0.53,0.53
106.42,-0.00,-0.00,-0.46,-0.46,0.47,0.41,0.57,0.46,0.46,0.46
107.48,-0.09,-0.09,-0.48,-0.48,0.48,0.42,0.60,0.39,0.39,0.39
108.56,-0.18,-0.18,-0.50,-0.50,0.50,0.44,0.62,0.32,0.32,0.31
109.64,-0.28,-0.28,-0.52,-0.52,0.52,0.45,0.65,0.24,0.24,0.24
110.74,-0.37,-0.37,-0.54,-0.54,0.54,0.47,0.68,0.17,0.16,0.17
111.85,-0.47,-0.47,-0.57,-0.56,0.56,0.48,0.70,0.08,0.09,0.10
112.97,-0.55,-0.55,-0.58,-0.58,0.57,0.50,0.73,0.02,0.02,0.02
114.10,-0.64,-0.64,-0.59,-0.59,0.59,0.51,0.75,-0.05,-0.04,-0.05
115.24,-0.72,-0.73,-0.60,-0.61,0.61,0.52,0.77,-0.11,-0.11,-0.12
116.39,-0.81,-0.82,-0.62,-0.63,0.63,0.54,0.79,-0.18,-0.18,-0.19
117.55,-0.91,-0.91,-0.65,-0.65,0.65,0.55,0.81,-0.26,-0.25,-0.26
118.73,-1.00,-1.00,-0.67,-0.67,0.67,0.56,0.82,-0.33,-0.33,-0.33
119.92,-1.09,-1.10,-0.69,-0.70,0.68,0.57,0.84,-0.41,-0.41,-0.40
121.12,-1.18,-1.18,-0.71,-0.72,0.70,0.59,0.85,-0.49,-0.49,-0.47
122.33,-1.27,-1.27,-0.74,-0.73,0.71,0.60,0.86,-0.56,-0.55,-0.54
123.55,-1.34,-1.34,-0.74,-0.73,0.73,0.61,0.87,-0.61,-0.60,-0.60
124.79,-1.40,-1.40,-0.73,-0.73,0.76,0.62,0.88,-0.64,-0.64,-0.67
126.03,-1.47,-1.48,-0.74,-0.74,0.79,0.63,0.89,-0.68,-0.69,-0.74
127.29,-1.57,-1.58,-0.77,-0.78,0.82,0.64,0.89,-0.76,-0.76,-0.80
128.57,-1.69,-1.70,-0.83,-0.84,0.83,0.65,0.89,-0.86,-0.87,-0.87
129.85,-1.83,-1.82,-0.90,-0.89,0.85,0.66,0.89,-0.99,-0.98,-0.93
131.15,-1.93,-1.91,-0.94,-0.92,0.85,0.66,0.89,-1.08,-1.06,-0.99
132.46,-1.96,-1.96,-0.91,-0.90,0.85,0.67,0.89,-1.11,-1.11,-1.06
133.79,-1.96,-1.97,-0.85,-0.85,0.85,0.68,0.89,-1.11,-1.12,-1.12
135.12,-1.97,-1.98,-0.79,-0.80,0.84,0.69,0.88,-1.13,-1.14,-1.18
136.48,-2.01,-2.01,-0.78,-0.78,0.83,0.69,0.87,-1.18,-1.19,-1.24
137.84,-2.07,-2.07,-0.78,-0.78,0.81,0.70,0.86,-1.26,-1.26,-1.30
139.22,-2.14,-2.15,-0.79,-0.80,0.80,0.70,0.85,-1.34,-1.35,-1.35
140.61,-2.23,-2.23,-0.82,-0.82,0.80,0.71,0.84,-1.43,-1.43,-1.41
142.02,-2.30,-2.29,-0.84,-0.83,0.81,0.71,0.83,-1.49,-1.49,-1.47
143.44,-2.35,-2.35,-0.83,-0.83,0.82,0.72,0.82,-1.53,-1.53,-1.52
144.87,-2.40,-2.41,-0.83,-0.83,0.84,0.72,0.81,-1.57,-1.57,-1.57
146.32,-2.46,-2.46,-0.84,-0.84,0.85,0.72,0.79,-1.62,-1.62,-1.63
147.78,-2.52,-2.52,-0.84,-0.84,0.85,0.73,0.78,-1.67,-1.67,-1.68
149.26,-2.58,-2.58,-0.85,-0.86,0.85,0.73,0.76,-1.73,-1.73,-1.73
150.75,-2.64,-2.64,-0.86,-0.86,0.85,0.73,0.75,-1.79,-1.79,-1.78
152.26,-2.69,-2.69,-0.87,-0.87,0.85,0.73,0.73,-1.84,-1.84,-1.83
153.78,-2.73,-2.73,-0.86,-0.86,0.85,0.73,0.72,-1.88,-1.88,-1.87
155.32,-2.77,-2.77,-0.85,-0.85,0.85,0.73,0.71,-1.93,-1.92,-1.92
156.88,-2.79,-2.80,-0.83,-0.83,0.84,0.73,0.69,-1.95,-1.96,-1.97
158.44,-2.83,-2.83,-0.82,-0.82,0.83,0.73,0.68,-2.00,-2.00,-2.01
160.03,-2.87,-2.87,-0.82,-0.82,0.82,0.73,0.66,-2.05,-2.05,-2.05
161.63,-2.92,-2.92,-0.82,-0.82,0.82,0.73,0.65,-2.11,-2.10,-2.11
163.24,-2.96,-2.96,-0.81,-0.81,0.81,0.72,0.63,-2.15,-2.15,-2.15
164.88,-2.99,-3.00,-0.80,-0.81,0.81,0.72,0.62,-2.19,-2.19,-2.19
166.53,-3.03,-3.03,-0.81,-0.81,0.81,0.72,0.61,-2.23,-2.23,-2.23
168.19,-3.07,-3.07,-0.81,-0.81,0.81,0.71,0.59,-2.27,-2.26,-2.27
169.87,-3.11,-3.11,-0.81,-0.81,0.81,0.71,0.58,-2.30,-2.30,-2.30
171.57,-3.15,-3.15,-0.81,-0.81,0.82,0.70,0.57,-2.34,-2.34,-2.34
173.29,-3.19,-3.19,-0.82,-0.82,0.82,0.70,0.56,-2.37,-2.37,-2.37
175.02,-3.23,-3.24,-0.82,-0.83,0.83,0.69,0.55,-2.40,-2.40,-2.41
176.77,-3.28,-3.28,-0.84,-0.84,0.84,0.69,0.53,-2.44,-2.44,-2.44
178.54,-3.32,-3.32,-0.85,-0.85,0.84,0.68,0.52,-2.48,-2.48,-2.48
180.32,-3.36,-3.36,-0.86,-0.86,0.85,0.67,0.51,-2.51,-2.52,-2.51
182.13,-3.40,-3.40,-0.86,-0.86,0.85,0.67,0.51,-2.55,-2.55,-2.54
183.95,-3.42,-3.42,-0.85,-0.85,0.85,0.66,0.50,-2.57,-2.57,-2.57
185.79,-3.44,-3.44,-0.85,-0.84,0.84,0.65,0.49,-2.60,-2.60,-2.60
187.65,-3.45,-3.46,-0.83,-0.83,0.84,0.64,0.48,-2.62,-2.62,-2.63
189.52,-3.47,-3.47,-0.82,-0.82,0.82,0.63,0.47,-2.65,-2.65,-2.65
191.42,-3.49,-3.49,-0.81,-0.81,0.81,0.63,0.47,-2.68,-2.68,-2.68
193.33,-3.51,-3.51,-0.81,-0.80,0.79,0.62,0.46,-2.72,-2.71,-2.71
195.27,-3.51,-3.51,-0.78,-0.78,0.78,0.61,0.45,-2.73,-2.73,-2.73
197.22,-3.51,-3.52,-0.76,-0.76,0.77,0.60,0.45,-2.74,-2.75,-2.75
199.19,-3.52,-3.52,-0.74,-0.75,0.76,0.59,0.44,-2.76,-2.77,-2.78
201.18,-3.54,-3.54,-0.74,-0.74,0.75,0.58,0.44,-2.79,-2.79,-2.80
203.19,-3.56,-3.56,-0.74,-0.74,0.74,0.56,0.43,-2.82,-2.83,-2.82
205.23,-3.58,-3.58,-0.74,-0.73,0.73,0.55,0.43,-2.86,-2.85,-2.85
207.28,-3.59,-3.59,-0.73,-0.72,0.71,0.54,0.42,-2.88,-2.88,-2.87
209.35,-3.59,-3.59,-0.71,-0.71,0.70,0.53,0.42,-2.89,-2.89,-2.89
211.44,-3.59,-3.59,-0.69,-0.69,0.69,0.52,0.41,-2.90,-2.91,-2.91
213.56,-3.59,-3.59,-0.67,-0.67,0.67,0.50,0.41,-2.92,-2.92,-2.92
215.69,-3.59,-3.59,-0.65,-0.65,0.66,0.49,0.41,-2.94,-2.94,-2.94
217.85,-3.59,-3.59,-0.63,-0.63,0.64,0.48,0.40,-2.95,-2.95,-2.96
220.03,-3.59,-3.59,-0.62,-0.62,0.62,0.47,0.40,-2.97,-2.97,-2.98
222.23,-3.59,-3.59,-0.60,-0.60,0.60,0.45,0.39,-2.99,-2.99,-2.99
224.45,-3.59,-3.59,-0.58,-0.58,0.59,0.44,0.39,-3.01,-3.01,-3.01
226.70,-3.59,-3.59,-0.57,-0.56,0.56,0.43,0.38,-3.03,-3.03,-3.03
228.96,-3.58,-3.58,-0.54,-0.54,0.53,0.41,0.38,-3.05,-3.05,-3.04
231.25,-3.56,-3.57,-0.51,-0.51,0.49,0.40,0.37,-3.07,-3.07,-3.05
233.57,-3.54,-3.54,-0.47,-0.47,0.45,0.38,0.37,-3.10,-3.10,-3.07
235.90,-3.51,-3.51,-0.42,-0.42,0.40,0.37,0.36,-3.11,-3.11,-3.09
238.26,-3.47,-3.47,-0.37,-0.36,0.35,0.35,0.36,-3.12,-3.11,-3.11
240.64,-3.42,-3.41,-0.30,-0.29,0.32,0.34,0.35,-3.11,-3.10,-3.12
243.05,-3.35,-3.37,-0.22,-0.24,0.28,0.32,0.34,-3.07,-3.08,-3.13
245.48,-3.34,-3.35,-0.20,-0.21,0.26,0.30,0.34,-3.08,-3.10,-3.14
247.93,-3.37,-3.37,-0.22,-0.22,0.24,0.29,0.33,-3.13,-3.13,-3.15
250.41,-3.41,-3.41,-0.25,-0.24,0.23,0.27,0.32,-3.19,-3.18,-3.16
252.92,-3.43,-3.43,-0.26,-0.25,0.22,0.26,0.31,-3.22,-3.21,-3.17
255.45,-3.43,-3.43,-0.25,-0.24,0.21,0.24,0.30,-3.22,-3.22,-3.18
258.00,-3.40,-3.41,-0.21,-0.22,0.20,0.22,0.29,-3.20,-3.21,-3.19
260.58,-3.39,-3.39,-0.19,-0.19,0.19,0.20,0.28,-3.20,-3.20,-3.20
263.19,-3.37,-3.37,-0.16,-0.16,0.17,0.19,0.27,-3.20,-3.20,-3.21
265.82,-3.35,-3.36,-0.13,-0.14,0.14,0.17,0.25,-3.21,-3.21,-3.22
268.48,-3.34,-3.34,-0.11,-0.11,0.11,0.15,0.24,-3.23,-3.23,-3.23
271.16,-3.33,-3.33,-0.09,-0.09,0.08,0.13,0.23,-3.25,-3.24,-3.24
273.87,-3.31,-3.31,-0.07,-0.06,0.06,0.11,0.21,-3.26,-3.25,-3.25
276.61,-3.28,-3.29,-0.03,-0.03,0.03,0.09,0.20,-3.25,-3.26,-3.25
279.38,-3.26,-3.26,-0.00,-0.00,0.00,0.07,0.19,-3.26,-3.26,-3.26
282.17,-3.24,-3.24,0.03,0.03,-0.02,0.05,0.17,-3.27,-3.26,-3.27
284.99,-3.21,-3.22,0.05,0.05,-0.05,0.03,0.16,-3.26,-3.26,-3.27
287.84,-3.19,-3.19,0.07,0.07,-0.07,0.01,0.14,-3.27,-3.27,-3.26
290.72,-3.17,-3.17,0.10,0.10,-0.10,-0.01,0.12,-3.27,-3.27,-3.27
293.63,-3.15,-3.15,0.12,0.12,-0.12,-0.03,0.11,-3.27,-3.27,-3.27
296.57,-3.13,-3.13,0.14,0.14,-0.14,-0.05,0.09,-3.27,-3.27,-3.27
299.53,-3.11,-3.11,0.15,0.16,-0.15,-0.07,0.07,-3.27,-3.27,-3.27
302.53,-3.09,-3.10,0.18,0.17,-0.17,-0.09,0.06,-3.27,-3.27,-3.27
305.55,-3.08,-3.08,0.19,0.19,-0.19,-0.11,0.04,-3.28,-3.27,-3.27
308.61,-3.06,-3.06,0.21,0.21,-0.21,-0.13,0.02,-3.28,-3.28,-3.27
311.69,-3.04,-3.04,0.23,0.23,-0.23,-0.15,0.00,-3.28,-3.28,-3.27
314.81,-3.02,-3.02,0.25,0.25,-0.25,-0.18,-0.01,-3.28,-3.27,-3.27
317.96,-2.99,-3.00,0.27,0.27,-0.28,-0.20,-0.03,-3.27,-3.27,-3.27
321.14,-2.97,-2.97,0.30,0.30,-0.30,-0.22,-0.05,-3.27,-3.26,-3.27
324.35,-2.94,-2.94,0.32,0.32,-0.31,-0.24,-0.07,-3.26,-3.26,-3.27
327.59,-2.92,-2.93,0.34,0.34,-0.33,-0.26,-0.09,-3.25,-3.26,-3.26
330.87,-2.91,-2.91,0.35,0.35,-0.35,-0.29,-0.11,-3.26,-3.26,-3.26
334.18,-2.90,-2.90,0.36,0.36,-0.36,-0.31,-0.13,-3.26,-3.26,-3.26
337.52,-2.88,-2.89,0.38,0.37,-0.37,-0.33,-0.15,-3.25,-3.26,-3.26
340.90,-2.87,-2.87,0.38,0.38,-0.38,-0.35,-0.16,-3.26,-3.26,-3.25
344.30,-2.86,-2.86,0.39,0.39,-0.40,-0.37,-0.18,-3.26,-3.26,-3.25
347.75,-2.84,-2.84,0.40,0.40,-0.41,-0.40,-0.20,-3.25,-3.25,-3.24
351.23,-2.82,-2.82,0.42,0.42,-0.43,-0.42,-0.22,-3.25,-3.25,-3.24
354.74,-2.79,-2.79,0.44,0.44,-0.44,-0.44,-0.24,-3.23,-3.23,-3.23
358.28,-2.76,-2.77,0.47,0.46,-0.46,-0.46,-0.26,-3.22,-3.22,-3.23
361.87,-2.74,-2.74,0.48,0.48,-0.47,-0.48,-0.28,-3.21,-3.21,-3.22
365.49,-2.72,-2.73,0.49,0.49,-0.48,-0.49,-0.30,-3.21,-3.21,-3.22
369.14,-2.71,-2.72,0.51,0.50,-0.50,-0.51,-0.32,-3.21,-3.21,-3.22
372.83,-2.71,-2.70,0.49,0.50,-0.51,-0.53,-0.35,-3.22,-3.21,-3.20
376.56,-2.69,-2.69,0.51,0.51,-0.52,-0.55,-0.37,-3.21,-3.21,-3.20
380.33,-2.66,-2.67,0.53,0.53,-0.53,-0.56,-0.39,-3.20,-3.20,-3.20
384.13,-2.65,-2.65,0.55,0.55,-0.55,-0.58,-0.41,-3.20,-3.19,-3.20
387.97,-2.62,-2.62,0.57,0.56,-0.56,-0.59,-0.43,-3.18,-3.18,-3.19
391.85,-2.60,-2.60,0.57,0.58,-0.58,-0.60,-0.45,-3.18,-3.18,-3.17
395.77,-2.58,-2.58,0.59,0.59,-0.59,-0.62,-0.47,-3.17,-3.17,-3.17
399.73,-2.56,-2.56,0.60,0.60,-0.60,-0.63,-0.49,-3.17,-3.17,-3.17
403.72,-2.54,-2.54,0.62,0.62,-0.62,-0.64,-0.52,-3.16,-3.16,-3.16
407.76,-2.53,-2.53,0.63,0.63,-0.63,-0.65,-0.54,-3.16,-3.15,-3.16
411.84,-2.51,-2.51,0.64,0.64,-0.63,-0.66,-0.56,-3.15,-3.15,-3.15
415.96,-2.50,-2.50,0.64,0.65,-0.64,-0.67,-0.58,-3.14,-3.15,-3.14
420.12,-2.49,-2.49,0.65,0.65,-0.65,-0.67,-0.60,-3.14,-3.14,-3.15
424.32,-2.48,-2.48,0.65,0.65,-0.66,-0.68,-0.62,-3.14,-3.14,-3.14
428.56,-2.47,-2.47,0.66,0.66,-0.67,-0.69,-0.64,-3.14,-3.14,-3.13
432.85,-2.45,-2.45,0.67,0.67,-0.67,-0.69,-0.66,-3.13,-3.13,-3.12
437.18,-2.43,-2.43,0.69,0.69,-0.68,-0.70,-0.68,-3.11,-3.12,-3.12
441.55,-2.41,-2.42,0.70,0.70,-0.69,-0.70,-0.70,-3.10,-3.11,-3.11
445.96,-2.40,-2.40,0.70,0.70,-0.70,-0.71,-0.72,-3.10,-3.10,-3.10
450.42,-2.38,-2.38,0.70,0.71,-0.71,-0.71,-0.74,-3.09,-3.09,-3.09
454.93,-2.36,-2.36,0.71,0.71,-0.72,-0.72,-0.76,-3.08,-3.08,-3.08
459.48,-2.34,-2.35,0.73,0.72,-0.73,-0.72,-0.78,-3.07,-3.07,-3.07
464.07,-2.33,-2.33,0.74,0.73,-0.74,-0.73,-0.80,-3.07,-3.07,-3.07
468.71,-2.32,-2.32,0.74,0.74,-0.74,-0.73,-0.82,-3.06,-3.06,-3.06
473.40,-2.30,-2.30,0.75,0.75,-0.75,-0.73,-0.83,-3.05,-3.05,-3.05
478.13,-2.28,-2.28,0.76,0.76,-0.75,-0.74,-0.85,-3.04,-3.04,-3.04
482.91,-2.26,-2.27,0.77,0.76,-0.76,-0.74,-0.86,-3.02,-3.03,-3.03
487.74,-2.26,-2.26,0.76,0.76,-0.76,-0.75,-0.88,-3.02,-3.02,-3.02
492.62,-2.26,-2.26,0.75,0.76,-0.76,-0.75,-0.89,-3.02,-3.02,-3.02
