frequency,raw,smoothed,error,error_smoothed,equalization,parametric_eq,fixed_band_eq,equalized_raw,equalized_smoothed,target
20.00,12.56,12.56,5.65,5.65,-5.66,-5.41,-1.51,6.89,6.89,6.91
20.20,12.55,12.55,5.64,5.64,-5.64,-5.38,-1.56,6.90,6.90,6.91
20.40,12.53,12.53,5.62,5.63,-5.62,-5.35,-1.60,6.91,6.91,6.91
20.61,12.52,12.51,5.61,5.60,-5.59,-5.32,-1.65,6.93,6.92,6.91
20.81,12.48,12.48,5.57,5.57,-5.56,-5.28,-1.70,6.92,6.92,6.91
21.02,12.44,12.44,5.53,5.53,-5.52,-5.25,-1.75,6.92,6.92,6.91
21.23,12.39,12.39,5.48,5.48,-5.48,-5.22,-1.80,6.91,6.91,6.90
21.44,12.34,12.34,5.43,5.43,-5.43,-5.18,-1.85,6.90,6.90,6.90
21.66,12.28,12.28,5.38,5.38,-5.38,-5.15,-1.90,6.90,6.90,6.90
21.87,12.23,12.22,5.32,5.32,-5.32,-5.11,-1.96,6.91,6.90,6.90
22.09,12.16,12.16,5.26,5.26,-5.26,-5.07,-2.02,6.90,6.90,6.90
22.31,12.10,12.10,5.20,5.20,-5.20,-5.04,-2.07,6.90,6.90,6.90
22.54,12.04,12.03,5.14,5.13,-5.14,-5.00,-2.13,6.90,6.90,6.90
22.76,11.97,11.97,5.07,5.07,-5.07,-4.96,-2.20,6.89,6.90,6.90
22.99,11.91,11.91,5.01,5.01,-5.01,-4.92,-2.26,6.89,6.90,6.90
23.22,11.85,11.85,4.95,4.95,-4.95,-4.88,-2.32,6.90,6.89,6.90
23.45,11.79,11.78,4.89,4.89,-4.89,-4.83,-2.39,6.90,6.90,6.90
23.69,11.72,11.72,4.82,4.83,-4.83,-4.79,-2.46,6.89,6.90,6.89
23.92,11.66,11.66,4.76,4.76,-4.76,-4.75,-2.52,6.89,6.89,6.89
24.16,11.60,11.59,4.70,4.70,-4.70,-4.70,-2.59,6.90,6.89,6.89
24.40,11.53,11.53,4.64,4.64,-4.63,-4.65,-2.66,6.89,6.89,6.89
24.65,11.46,11.46,4.57,4.57,-4.57,-4.61,-2.74,6.89,6.89,6.89
24.89,11.39,11.39,4.50,4.50,-4.50,-4.56,-2.81,6.89,6.89,6.89
25.14,11.32,11.32,4.43,4.43,-4.43,-4.51,-2.88,6.89,6.89,6.89
25.39,11.25,11.25,4.36,4.36,-4.36,-4.46,-2.95,6.89,6.89,6.89
25.65,11.18,11.18,4.29,4.29,-4.29,-4.41,-3.03,6.88,6.88,6.88
25.91,11.11,11.11,4.23,4.22,-4.23,-4.36,-3.10,6.88,6.88,6.88
26.16,11.04,11.04,4.16,4.16,-4.16,-4.31,-3.18,6.87,6.88,6.88
26.43,10.98,10.98,4.10,4.10,-4.10,-4.26,-3.25,6.88,6.88,6.88
26.69,10.92,10.92,4.04,4.04,-4.04,-4.21,-3.32,6.88,6.88,6.88
26.96,10.86,10.86,3.98,3.98,-3.98,-4.15,-3.40,6.88,6.88,6.88
27.23,10.80,10.80,3.92,3.92,-3.92,-4.10,-3.47,6.88,6.88,6.87
27.50,10.74,10.74,3.87,3.87,-3.87,-4.05,-3.54,6.87,6.87,6.87
27.77,10.68,10.68,3.81,3.81,-3.81,-3.99,-3.61,6.87,6.87,6.87
28.05,10.63,10.62,3.76,3.75,-3.75,-3.94,-3.67,6.87,6.87,6.87
28.33,10.57,10.57,3.70,3.70,-3.70,-3.88,-3.73,6.87,6.87,6.87
28.62,10.51,10.51,3.64,3.65,-3.65,-3.83,-3.79,6.86,6.87,6.86
28.90,10.46,10.46,3.60,3.59,-3.59,-3.77,-3.85,6.86,6.86,6.86
29.19,10.41,10.40,3.55,3.54,-3.54,-3.72,-3.90,6.87,6.86,6.86
29.48,10.35,10.35,3.49,3.49,-3.49,-3.67,-3.95,6.85,6.86,6.86
29.78,10.30,10.30,3.44,3.44,-3.45,-3.61,-4.00,6.85,6.85,6.85
30.08,10.25,10.25,3.40,3.40,-3.40,-3.56,-4.04,6.85,6.85,6.85
30.38,10.21,10.21,3.36,3.36,-3.36,-3.51,-4.08,6.85,6.85,6.85
30.68,10.17,10.17,3.32,3.32,-3.32,-3.45,-4.11,6.85,6.85,6.85
30.99,10.13,10.13,3.28,3.28,-3.28,-3.40,-4.13,6.84,6.84,6.84
31.30,10.09,10.09,3.25,3.25,-3.25,-3.35,-4.16,6.84,6.84,6.84
31.61,10.06,10.06,3.22,3.22,-3.22,-3.30,-4.17,6.84,6.84,6.84
31.93,10.03,10.03,3.19,3.19,-3.19,-3.26,-4.18,6.84,6.83,6.83
32.24,10.00,10.00,3.17,3.17,-3.16,-3.21,-4.19,6.83,6.83,6.83
32.57,9.97,9.97,3.14,3.14,-3.14,-3.17,-4.20,6.83,6.83,6.83
32.89,9.94,9.94,3.11,3.12,-3.12,-3.12,-4.19,6.82,6.83,6.82
33.22,9.92,9.91,3.10,3.09,-3.09,-3.08,-4.19,6.82,6.82,6.82
33.55,9.89,9.89,3.07,3.07,-3.07,-3.04,-4.18,6.82,6.82,6.82
33.89,9.86,9.86,3.05,3.05,-3.05,-3.01,-4.17,6.81,6.81,6.81
34.23,9.84,9.84,3.03,3.03,-3.03,-2.97,-4.15,6.81,6.81,6.81
34.57,9.82,9.82,3.01,3.01,-3.01,-2.94,-4.13,6.80,6.80,6.80
34.92,9.80,9.80,3.00,3.00,-3.00,-2.91,-4.11,6.80,6.80,6.80
35.27,9.78,9.78,2.98,2.98,-2.98,-2.89,-4.09,6.80,6.80,6.79
35.62,9.76,9.76,2.97,2.97,-2.97,-2.86,-4.06,6.79,6.79,6.79
35.97,9.74,9.74,2.95,2.95,-2.95,-2.84,-4.04,6.78,6.78,6.78
36.33,9.72,9.72,2.94,2.94,-2.94,-2.83,-4.01,6.78,6.78,6.78
36.70,9.71,9.70,2.93,2.93,-2.93,-2.81,-3.98,6.78,6.77,6.77
37.06,9.69,9.69,2.92,2.92,-2.92,-2.80,-3.96,6.77,6.77,6.77
37.43,9.68,9.68,2.92,2.91,-2.91,-2.79,-3.93,6.76,6.76,6.76
37.81,9.67,9.66,2.91,2.91,-2.91,-2.79,-3.90,6.76,6.75,6.76
38.19,9.65,9.65,2.90,2.90,-2.91,-2.78,-3.88,6.74,6.75,6.75
38.57,9.65,9.64,2.90,2.90,-2.90,-2.79,-3.86,6.75,6.74,6.74
38.95,9.64,9.64,2.90,2.90,-2.90,-2.79,-3.83,6.74,6.74,6.74
39.34,9.63,9.63,2.90,2.90,-2.90,-2.80,-3.81,6.73,6.73,6.73
39.74,9.63,9.62,2.91,2.90,-2.90,-2.81,-3.79,6.73,6.72,6.72
40.14,9.62,9.62,2.90,2.90,-2.90,-2.82,-3.77,6.71,6.71,6.71
40.54,9.61,9.61,2.90,2.91,-2.91,-2.83,-3.76,6.70,6.71,6.71
40.94,9.61,9.61,2.91,2.91,-2.91,-2.85,-3.75,6.70,6.70,6.70
41.35,9.61,9.61,2.92,2.92,-2.92,-2.87,-3.74,6.69,6.69,6.69
41.76,9.61,9.61,2.93,2.93,-2.93,-2.89,-3.73,6.68,6.68,6.68
42.18,9.61,9.61,2.94,2.93,-2.93,-2.92,-3.72,6.67,6.67,6.67
42.60,9.61,9.61,2.95,2.95,-2.95,-2.95,-3.72,6.66,6.66,6.66
43.03,9.61,9.61,2.95,2.96,-2.96,-2.97,-3.72,6.65,6.65,6.65
43.46,9.62,9.61,2.97,2.97,-2.97,-3.00,-3.72,6.65,6.64,6.64
43.90,9.62,9.62,2.99,2.99,-2.99,-3.04,-3.73,6.63,6.63,6.63
44.33,9.63,9.62,3.01,3.00,-3.00,-3.07,-3.74,6.63,6.62,6.62
44.78,9.63,9.63,3.02,3.02,-3.02,-3.10,-3.75,6.61,6.61,6.61
45.23,9.64,9.64,3.04,3.04,-3.04,-3.14,-3.76,6.60,6.60,6.60
45.68,9.65,9.65,3.06,3.06,-3.06,-3.18,-3.78,6.59,6.59,6.59
46.13,9.66,9.66,3.08,3.09,-3.09,-3.21,-3.80,6.57,6.58,6.57
46.60,9.68,9.67,3.12,3.11,-3.11,-3.25,-3.83,6.57,6.56,6.56
47.06,9.69,9.69,3.14,3.14,-3.14,-3.29,-3.85,6.55,6.55,6.55
47.53,9.70,9.70,3.16,3.17,-3.17,-3.33,-3.88,6.53,6.53,6.53
48.01,9.72,9.72,3.20,3.20,-3.20,-3.36,-3.91,6.52,6.52,6.52
48.49,9.74,9.74,3.23,3.23,-3.23,-3.40,-3.94,6.51,6.50,6.50
48.97,9.76,9.76,3.27,3.27,-3.27,-3.44,-3.98,6.49,6.49,6.49
49.46,9.78,9.78,3.30,3.30,-3.30,-3.48,-4.02,6.48,6.48,6.47
49.96,9.80,9.80,3.34,3.34,-3.34,-3.52,-4.06,6.46,6.46,6.46
50.46,9.82,9.82,3.38,3.38,-3.38,-3.55,-4.10,6.44,6.44,6.44
50.96,9.84,9.84,3.41,3.42,-3.42,-3.59,-4.14,6.42,6.42,6.42
51.47,9.87,9.87,3.46,3.46,-3.46,-3.62,-4.18,6.41,6.40,6.40
51.99,9.90,9.89,3.51,3.51,-3.51,-3.66,-4.23,6.39,6.38,6.39
52.51,9.92,9.92,3.55,3.55,-3.56,-3.69,-4.27,6.36,6.37,6.37
53.03,9.95,9.95,3.60,3.60,-3.61,-3.73,-4.31,6.34,6.35,6.35
53.56,9.99,9.98,3.66,3.66,-3.66,-3.76,-4.36,6.33,6.32,6.33
54.10,10.02,10.02,3.71,3.71,-3.71,-3.79,-4.40,6.31,6.31,6.31
54.64,10.05,10.05,3.76,3.77,-3.77,-3.82,-4.44,6.28,6.29,6.28
55.18,10.09,10.08,3.83,3.82,-3.82,-3.85,-4.48,6.27,6.26,6.26
55.74,10.12,10.12,3.88,3.88,-3.88,-3.88,-4.52,6.24,6.24,6.24
56.29,10.15,10.15,3.93,3.94,-3.94,-3.91,-4.56,6.21,6.21,6.21
56.86,10.18,10.18,3.99,3.99,-3.99,-3.93,-4.59,6.18,6.19,6.19
57.42,10.21,10.21,4.05,4.04,-4.05,-3.96,-4.62,6.16,6.16,6.16
58.00,10.24,10.24,4.10,4.10,-4.10,-3.98,-4.65,6.13,6.13,6.14
58.58,10.27,10.27,4.16,4.16,-4.16,-4.00,-4.67,6.11,6.11,6.11
59.16,10.30,10.29,4.22,4.21,-4.21,-4.02,-4.69,6.09,6.08,6.08
59.76,10.32,10.32,4.27,4.26,-4.26,-4.04,-4.70,6.06,6.06,6.05
60.35,10.33,10.33,4.31,4.31,-4.31,-4.06,-4.70,6.02,6.02,6.02
60.96,10.35,10.34,4.36,4.35,-4.35,-4.08,-4.70,6.00,5.99,5.99
61.57,10.35,10.35,4.39,4.39,-4.39,-4.09,-4.70,5.96,5.96,5.96
62.18,10.36,10.35,4.43,4.43,-4.43,-4.11,-4.69,5.93,5.93,5.93
62.80,10.35,10.35,4.45,4.45,-4.46,-4.12,-4.67,5.89,5.89,5.89
63.43,10.34,10.34,4.48,4.48,-4.48,-4.13,-4.64,5.86,5.86,5.86
64.07,10.33,10.33,4.50,4.50,-4.50,-4.14,-4.61,5.83,5.82,5.83
64.71,10.31,10.31,4.52,4.52,-4.52,-4.15,-4.58,5.79,5.79,5.79
65.35,10.28,10.28,4.53,4.53,-4.53,-4.15,-4.54,5.75,5.75,5.75
66.01,10.25,10.25,4.53,4.53,-4.53,-4.16,-4.49,5.72,5.72,5.71
66.67,10.21,10.21,4.53,4.53,-4.53,-4.16,-4.43,5.68,5.68,5.67
67.33,10.16,10.16,4.52,4.52,-4.52,-4.17,-4.38,5.64,5.64,5.63
68.01,10.10,10.10,4.50,4.51,-4.51,-4.17,-4.31,5.59,5.59,5.59
68.69,10.04,10.04,4.49,4.48,-4.49,-4.17,-4.25,5.55,5.55,5.55
69.37,9.97,9.97,4.46,4.46,-4.46,-4.16,-4.18,5.50,5.51,5.51
70.07,9.90,9.90,4.43,4.44,-4.44,-4.16,-4.10,5.46,5.46,5.46
70.77,9.83,9.82,4.41,4.40,-4.41,-4.15,-4.02,5.42,5.42,5.42
71.48,9.75,9.75,4.37,4.37,-4.37,-4.15,-3.94,5.38,5.37,5.37
72.19,9.66,9.66,4.33,4.34,-4.33,-4.14,-3.86,5.32,5.33,5.33
72.91,9.58,9.57,4.30,4.30,-4.30,-4.13,-3.78,5.28,5.28,5.28
73.64,9.49,9.48,4.26,4.26,-4.26,-4.12,-3.69,5.23,5.23,5.23
74.38,9.39,9.39,4.21,4.21,-4.21,-4.11,-3.61,5.17,5.18,5.18
75.12,9.30,9.30,4.17,4.17,-4.17,-4.09,-3.52,5.13,5.12,5.13
75.87,9.20,9.20,4.12,4.13,-4.13,-4.08,-3.43,5.07,5.07,5.07
76.63,9.11,9.10,4.09,4.08,-4.08,-4.06,-3.35,5.02,5.02,5.02
77.40,9.01,9.01,4.04,4.04,-4.04,-4.04,-3.26,4.97,4.97,4.97
78.17,8.91,8.91,4.00,4.00,-4.00,-4.03,-3.17,4.91,4.91,4.91
78.95,8.81,8.81,3.95,3.95,-3.95,-4.01,-3.08,4.85,4.85,4.86
79.74,8.71,8.71,3.91,3.91,-3.91,-3.98,-3.00,4.80,4.80,4.80
80.54,8.61,8.61,3.87,3.87,-3.87,-3.96,-2.91,4.74,4.74,4.74
81.35,8.51,8.51,3.83,3.83,-3.83,-3.94,-2.83,4.68,4.68,4.68
82.16,8.41,8.41,3.79,3.79,-3.79,-3.91,-2.75,4.62,4.62,4.62
82.98,8.31,8.31,3.75,3.75,-3.75,-3.88,-2.67,4.56,4.56,4.56
83.81,8.21,8.21,3.71,3.71,-3.71,-3.85,-2.59,4.50,4.50,4.50
84.65,8.11,8.11,3.67,3.67,-3.67,-3.82,-2.51,4.43,4.43,4.44
85.50,8.01,8.01,3.64,3.64,-3.64,-3.79,-2.43,4.37,4.37,4.37
86.35,7.91,7.91,3.60,3.60,-3.60,-3.76,-2.36,4.31,4.31,4.31
87.22,7.81,7.81,3.57,3.57,-3.57,-3.73,-2.29,4.24,4.24,4.24
88.09,7.71,7.71,3.53,3.53,-3.53,-3.69,-2.21,4.18,4.18,4.18
88.97,7.61,7.60,3.50,3.50,-3.49,-3.66,-2.14,4.11,4.11,4.11
89.86,7.50,7.50,3.46,3.46,-3.46,-3.62,-2.07,4.04,4.04,4.04
90.76,7.40,7.40,3.42,3.42,-3.43,-3.58,-2.01,3.97,3.97,3.97
91.66,7.30,7.29,3.39,3.39,-3.39,-3.54,-1.94,3.91,3.90,3.91
92.58,7.19,7.19,3.35,3.35,-3.36,-3.50,-1.88,3.83,3.83,3.84
93.51,7.09,7.09,3.32,3.32,-3.32,-3.46,-1.82,3.77,3.77,3.77
94.44,6.98,6.98,3.28,3.28,-3.29,-3.41,-1.76,3.69,3.70,3.70
95.39,6.88,6.88,3.25,3.25,-3.25,-3.37,-1.70,3.63,3.63,3.63
96.34,6.77,6.77,3.21,3.21,-3.21,-3.32,-1.64,3.55,3.56,3.55
97.30,6.66,6.66,3.17,3.18,-3.17,-3.27,-1.58,3.48,3.48,3.48
98.28,6.55,6.55,3.14,3.13,-3.13,-3.23,-1.53,3.41,3.41,3.41
99.26,6.43,6.43,3.09,3.09,-3.09,-3.18,-1.48,3.33,3.34,3.34
100.25,6.32,6.32,3.05,3.05,-3.05,-3.12,-1.43,3.27,3.27,3.27
101.25,6.20,6.20,3.00,3.00,-3.00,-3.07,-1.37,3.19,3.19,3.19
102.27,6.08,6.08,2.96,2.96,-2.96,-3.02,-1.33,3.12,3.12,3.12
103.29,5.95,5.95,2.90,2.90,-2.90,-2.96,-1.28,3.04,3.05,3.05
104.32,5.83,5.83,2.85,2.85,-2.85,-2.91,-1.24,2.98,2.97,2.97
105.37,5.70,5.70,2.80,2.80,-2.80,-2.85,-1.19,2.90,2.90,2.90
106.42,5.57,5.57,2.74,2.74,-2.74,-2.79,-1.15,2.83,2.83,2.83
107.48,5.44,5.43,2.68,2.68,-2.68,-2.73,-1.11,2.76,2.76,2.76
108.56,5.30,5.30,2.62,2.62,-2.62,-2.67,-1.07,2.68,2.68,2.68
109.64,5.16,5.16,2.55,2.55,-2.55,-2.60,-1.04,2.61,2.61,2.61
110.74,5.02,5.02,2.48,2.48,-2.48,-2.54,-1.00,2.53,2.54,2.54
111.85,4.88,4.87,2.41,2.41,-2.41,-2.47,-0.97,2.47,2.46,2.46
112.97,4.73,4.73,2.34,2.34,-2.34,-2.40,-0.94,2.39,2.39,2.39
114.10,4.58,4.58,2.26,2.26,-2.26,-2.33,-0.91,2.32,2.32,2.32
115.24,4.43,4.43,2.18,2.18,-2.17,-2.25,-0.88,2.25,2.25,2.25
116.39,4.27,4.27,2.09,2.09,-2.09,-2.17,-0.86,2.18,2.18,2.18
117.55,4.11,4.11,2.00,2.00,-2.00,-2.09,-0.83,2.11,2.11,2.11
118.73,3.94,3.94,1.90,1.90,-1.90,-2.01,-0.81,2.04,2.04,2.04
119.92,3.77,3.77,1.80,1.80,-1.80,-1.92,-0.79,1.97,1.97,1.97
121.12,3.60,3.60,1.70,1.70,-1.70,-1.84,-0.77,1.90,1.90,1.90
122.33,3.43,3.43,1.60,1.59,-1.59,-1.74,-0.76,1.84,1.83,1.83
123.55,3.25,3.25,1.48,1.48,-1.48,-1.64,-0.75,1.77,1.77,1.76
124.79,3.07,3.07,1.37,1.37,-1.37,-1.54,-0.74,1.70,1.70,1.70
126.03,2.88,2.88,1.25,1.25,-1.25,-1.44,-0.73,1.63,1.63,1.63
127.29,2.70,2.70,1.13,1.13,-1.13,-1.32,-0.72,1.57,1.57,1.57
128.57,2.51,2.51,1.01,1.00,-1.00,-1.21,-0.72,1.50,1.50,1.50
129.85,2.32,2.32,0.88,0.88,-0.88,-1.08,-0.71,1.44,1.44,1.44
131.15,2.12,2.12,0.74,0.75,-0.75,-0.96,-0.71,1.37,1.38,1.37
132.46,1.93,1.92,0.61,0.61,-0.61,-0.82,-0.72,1.31,1.31,1.31
133.79,1.73,1.73,0.48,0.48,-0.48,-0.68,-0.72,1.25,1.25,1.25
135.12,1.54,1.54,0.35,0.35,-0.35,-0.53,-0.72,1.19,1.19,1.19
136.48,1.35,1.35,0.22,0.22,-0.21,-0.37,-0.73,1.13,1.13,1.13
137.84,1.16,1.16,0.08,0.08,-0.08,-0.21,-0.74,1.08,1.08,1.07
139.22,0.97,0.97,-0.05,-0.05,0.05,-0.05,-0.75,1.02,1.02,1.02
140.61,0.78,0.78,-0.18,-0.18,0.18,0.13,-0.76,0.96,0.96,0.96
142.02,0.60,0.60,-0.31,-0.31,0.31,0.30,-0.78,0.91,0.90,0.90
143.44,0.42,0.42,-0.43,-0.43,0.43,0.47,-0.79,0.85,0.85,0.85
144.87,0.25,0.25,-0.55,-0.55,0.55,0.64,-0.81,0.80,0.80,0.79
146.32,0.08,0.08,-0.66,-0.66,0.66,0.80,-0.83,0.74,0.74,0.74
147.78,-0.07,-0.07,-0.76,-0.77,0.76,0.96,-0.85,0.69,0.69,0.69
149.26,-0.22,-0.22,-0.86,-0.86,0.86,1.09,-0.87,0.64,0.64,0.64
150.75,-0.35,-0.36,-0.94,-0.95,0.94,1.23,-0.89,0.59,0.59,0.59
152.26,-0.48,-0.48,-1.02,-1.02,1.02,1.31,-0.92,0.54,0.54,0.54
153.78,-0.58,-0.59,-1.08,-1.08,1.08,1.39,-0.94,0.50,0.49,0.49
155.32,-0.68,-0.68,-1.13,-1.13,1.13,1.42,-0.97,0.45,0.45,0.45
156.88,-0.76,-0.76,-1.16,-1.17,1.16,1.44,-0.99,0.40,0.40,0.40
158.44,-0.83,-0.83,-1.19,-1.19,1.19,1.41,-1.02,0.35,0.35,0.36
160.03,-0.89,-0.89,-1.21,-1.20,1.19,1.38,-1.05,0.30,0.31,0.31
161.63,-0.92,-0.92,-1.18,-1.19,1.19,1.29,-1.08,0.26,0.26,0.26
163.24,-0.94,-0.94,-1.16,-1.17,1.17,1.21,-1.11,0.22,0.22,0.22
164.88,-0.95,-0.95,-1.13,-1.13,1.13,1.09,-1.15,0.18,0.18,0.18
166.53,-0.94,-0.94,-1.08,-1.09,1.08,0.98,-1.18,0.14,0.14,0.14
168.19,-0.92,-0.92,-1.03,-1.03,1.02,0.84,-1.22,0.10,0.10,0.10
169.87,-0.89,-0.89,-0.96,-0.96,0.95,0.71,-1.25,0.06,0.06,0.07
171.57,-0.84,-0.85,-0.87,-0.87,0.87,0.58,-1.29,0.03,0.03,0.03
173.29,-0.79,-0.79,-0.79,-0.78,0.78,0.45,-1.33,-0.01,-0.01,-0.01
175.02,-0.72,-0.72,-0.68,-0.68,0.68,0.32,-1.37,-0.04,-0.04,-0.04
176.77,-0.65,-0.65,-0.58,-0.58,0.58,0.19,-1.41,-0.08,-0.07,-0.07
178.54,-0.57,-0.57,-0.47,-0.46,0.46,0.08,-1.45,-0.11,-0.11,-0.11
180.32,-0.48,-0.48,-0.34,-0.35,0.35,-0.04,-1.49,-0.14,-0.14,-0.14
182.13,-0.39,-0.39,-0.22,-0.22,0.22,-0.14,-1.53,-0.17,-0.17,-0.17
183.95,-0.29,-0.29,-0.09,-0.09,0.10,-0.25,-1.58,-0.20,-0.20,-0.20
185.79,-0.19,-0.19,0.04,0.03,-0.03,-0.34,-1.62,-0.23,-0.23,-0.23
187.65,-0.09,-0.09,0.16,0.16,-0.16,-0.43,-1.67,-0.26,-0.26,-0.26
189.52,0.01,0.01,0.29,0.30,-0.30,-0.51,-1.72,-0.29,-0.29,-0.28
191.42,0.12,0.12,0.43,0.43,-0.43,-0.60,-1.76,-0.31,-0.31,-0.31
193.33,0.23,0.22,0.56,0.56,-0.56,-0.67,-1.81,-0.33,-0.34,-0.34
195.27,0.33,0.33,0.69,0.69,-0.69,-0.74,-1.86,-0.36,-0.36,-0.36
197.22,0.43,0.43,0.81,0.82,-0.82,-0.81,-1.91,-0.39,-0.38,-0.39
199.19,0.54,0.53,0.95,0.94,-0.94,-0.88,-1.96,-0.40,-0.41,-0.41
201.18,0.63,0.63,1.06,1.06,-1.06,-0.94,-2.01,-0.44,-0.43,-0.43
203.19,0.73,0.73,1.18,1.18,-1.18,-1.00,-2.06,-0.46,-0.46,-0.46
205.23,0.83,0.82,1.30,1.30,-1.30,-1.06,-2.11,-0.47,-0.48,-0.48
207.28,0.92,0.92,1.41,1.42,-1.41,-1.11,-2.16,-0.50,-0.50,-0.50
209.35,1.01,1.01,1.53,1.53,-1.52,-1.17,-2.21,-0.52,-0.52,-0.52
211.44,1.10,1.09,1.63,1.63,-1.63,-1.23,-2.26,-0.53,-0.54,-0.54
213.56,1.18,1.18,1.73,1.73,-1.73,-1.28,-2.31,-0.56,-0.55,-0.56
215.69,1.26,1.26,1.83,1.83,-1.83,-1.33,-2.36,-0.57,-0.57,-0.57
217.85,1.34,1.33,1.93,1.93,-1.93,-1.39,-2.40,-0.59,-0.59,-0.59
220.03,1.41,1.41,2.02,2.02,-2.02,-1.44,-2.45,-0.61,-0.61,-0.61
222.23,1.48,1.48,2.10,2.10,-2.11,-1.49,-2.49,-0.63,-0.63,-0.63
224.45,1.55,1.55,2.19,2.19,-2.19,-1.55,-2.54,-0.64,-0.64,-0.64
226.70,1.62,1.61,2.27,2.27,-2.27,-1.60,-2.57,-0.65,-0.66,-0.66
228.96,1.68,1.68,2.35,2.35,-2.35,-1.66,-2.61,-0.67,-0.67,-0.67
231.25,1.73,1.73,2.41,2.42,-2.42,-1.71,-2.65,-0.69,-0.69,-0.69
233.57,1.79,1.78,2.49,2.49,-2.49,-1.77,-2.68,-0.70,-0.71,-0.70
235.90,1.84,1.83,2.56,2.56,-2.56,-1.83,-2.71,-0.72,-0.72,-0.72
238.26,1.88,1.88,2.61,2.62,-2.62,-1.89,-2.73,-0.74,-0.73,-0.74
240.64,1.93,1.93,2.68,2.68,-2.67,-1.95,-2.75,-0.75,-0.75,-0.75
243.05,1.97,1.97,2.73,2.73,-2.73,-2.01,-2.77,-0.76,-0.76,-0.76
245.48,2.01,2.01,2.78,2.78,-2.78,-2.08,-2.78,-0.77,-0.77,-0.77
247.93,2.04,2.04,2.82,2.82,-2.82,-2.14,-2.79,-0.79,-0.79,-0.78
250.41,2.07,2.07,2.86,2.86,-2.87,-2.21,-2.80,-0.80,-0.80,-0.80
252.92,2.10,2.10,2.90,2.90,-2.91,-2.28,-2.80,-0.81,-0.81,-0.81
255.45,2.13,2.13,2.94,2.94,-2.94,-2.35,-2.80,-0.82,-0.82,-0.82
258.00,2.16,2.16,2.98,2.98,-2.98,-2.42,-2.80,-0.82,-0.82,-0.83
260.58,2.18,2.18,3.01,3.01,-3.01,-2.50,-2.79,-0.83,-0.83,-0.84
263.19,2.20,2.20,3.04,3.04,-3.04,-2.57,-2.77,-0.84,-0.84,-0.84
265.82,2.21,2.21,3.06,3.06,-3.07,-2.65,-2.76,-0.86,-0.86,-0.85
268.48,2.23,2.23,3.09,3.09,-3.09,-2.73,-2.74,-0.86,-0.87,-0.86
271.16,2.24,2.24,3.11,3.11,-3.11,-2.81,-2.71,-0.87,-0.87,-0.87
273.87,2.25,2.25,3.13,3.13,-3.13,-2.88,-2.69,-0.88,-0.88,-0.88
276.61,2.26,2.26,3.14,3.14,-3.14,-2.96,-2.66,-0.88,-0.88,-0.89
279.38,2.27,2.26,3.16,3.16,-3.15,-3.04,-2.63,-0.89,-0.89,-0.89
282.17,2.27,2.27,3.17,3.16,-3.16,-3.12,-2.60,-0.89,-0.89,-0.90
284.99,2.27,2.27,3.16,3.17,-3.17,-3.19,-2.57,-0.90,-0.90,-0.90
287.84,2.27,2.27,3.16,3.17,-3.17,-3.27,-2.53,-0.90,-0.90,-0.89
290.72,2.27,2.27,3.17,3.17,-3.17,-3.34,-2.50,-0.90,-0.90,-0.90
293.63,2.27,2.27,3.17,3.17,-3.17,-3.40,-2.46,-0.90,-0.90,-0.91
296.57,2.27,2.26,3.17,3.17,-3.17,-3.47,-2.42,-0.90,-0.90,-0.90
299.53,2.26,2.26,3.16,3.16,-3.16,-3.52,-2.38,-0.90,-0.90,-0.90
302.53,2.25,2.25,3.15,3.15,-3.15,-3.57,-2.35,-0.91,-0.90,-0.90
305.55,2.25,2.25,3.15,3.15,-3.15,-3.62,-2.31,-0.90,-0.90,-0.90
308.61,2.24,2.24,3.14,3.14,-3.14,-3.66,-2.27,-0.90,-0.90,-0.90
311.69,2.23,2.23,3.13,3.13,-3.13,-3.69,-2.23,-0.90,-0.90,-0.90
314.81,2.21,2.21,3.11,3.11,-3.11,-3.71,-2.20,-0.90,-0.90,-0.90
317.96,2.20,2.20,3.10,3.10,-3.10,-3.72,-2.16,-0.90,-0.90,-0.90
321.14,2.18,2.18,3.08,3.08,-3.08,-3.73,-2.12,-0.90,-0.90,-0.90
324.35,2.17,2.16,3.06,3.06,-3.06,-3.72,-2.09,-0.89,-0.90,-0.90
327.59,2.15,2.14,3.04,3.04,-3.04,-3.71,-2.06,-0.89,-0.90,-0.89
330.87,2.12,2.12,3.01,3.02,-3.02,-3.69,-2.03,-0.90,-0.89,-0.90
334.18,2.10,2.10,2.99,2.99,-2.99,-3.66,-1.99,-0.89,-0.89,-0.89
337.52,2.08,2.07,2.97,2.96,-2.96,-3.62,-1.96,-0.88,-0.89,-0.89
340.90,2.05,2.05,2.93,2.93,-2.93,-3.57,-1.94,-0.88,-0.88,-0.89
344.30,2.02,2.02,2.90,2.90,-2.90,-3.52,-1.91,-0.88,-0.88,-0.88
347.75,1.99,1.99,2.86,2.86,-2.87,-3.46,-1.88,-0.88,-0.88,-0.87
351.23,1.96,1.96,2.83,2.83,-2.83,-3.39,-1.86,-0.87,-0.87,-0.88
354.74,1.93,1.93,2.79,2.80,-2.80,-3.32,-1.84,-0.87,-0.87,-0.86
358.28,1.91,1.90,2.77,2.76,-2.77,-3.25,-1.82,-0.86,-0.86,-0.86
361.87,1.88,1.88,2.73,2.73,-2.73,-3.17,-1.80,-0.86,-0.86,-0.86
365.49,1.86,1.86,2.71,2.71,-2.70,-3.09,-1.78,-0.85,-0.85,-0.85
369.14,1.83,1.83,2.68,2.67,-2.67,-3.01,-1.76,-0.85,-0.84,-0.85
372.83,1.81,1.80,2.64,2.64,-2.64,-2.93,-1.75,-0.84,-0.84,-0.83
376.56,1.78,1.78,2.61,2.61,-2.61,-2.84,-1.73,-0.83,-0.83,-0.84
380.33,1.75,1.75,2.58,2.58,-2.58,-2.76,-1.72,-0.83,-0.83,-0.83
384.13,1.73,1.72,2.56,2.55,-2.55,-2.68,-1.71,-0.82,-0.82,-0.83
387.97,1.70,1.70,2.52,2.52,-2.52,-2.59,-1.70,-0.82,-0.82,-0.82
391.85,1.67,1.67,2.47,2.48,-2.48,-2.51,-1.69,-0.82,-0.81,-0.80
395.77,1.65,1.64,2.45,2.45,-2.45,-2.43,-1.68,-0.80,-0.81,-0.81
399.73,1.62,1.62,2.42,2.42,-2.42,-2.35,-1.67,-0.80,-0.80,-0.80
403.72,1.60,1.60,2.39,2.39,-2.39,-2.27,-1.67,-0.79,-0.79,-0.79
407.76,1.57,1.57,2.36,2.35,-2.36,-2.20,-1.66,-0.79,-0.79,-0.79
411.84,1.54,1.54,2.32,2.32,-2.32,-2.12,-1.66,-0.79,-0.78,-0.78
415.96,1.51,1.51,2.28,2.29,-2.29,-2.05,-1.65,-0.78,-0.78,-0.78
420.12,1.49,1.49,2.26,2.26,-2.26,-1.98,-1.65,-0.77,-0.77,-0.78
424.32,1.46,1.46,2.23,2.22,-2.22,-1.92,-1.65,-0.76,-0.77,-0.77
428.56,1.43,1.43,2.19,2.19,-2.19,-1.85,-1.64,-0.76,-0.76,-0.76
432.85,1.39,1.39,2.14,2.15,-2.15,-1.79,-1.64,-0.76,-0.76,-0.75
437.18,1.36,1.36,2.11,2.11,-2.11,-1.73,-1.64,-0.75,-0.75,-0.75
441.55,1.33,1.33,2.07,2.07,-2.07,-1.67,-1.64,-0.74,-0.74,-0.74
445.96,1.30,1.30,2.03,2.03,-2.03,-1.61,-1.64,-0.73,-0.73,-0.74
450.42,1.27,1.27,1.98,1.98,-1.99,-1.56,-1.63,-0.72,-0.72,-0.72
454.93,1.23,1.23,1.94,1.94,-1.94,-1.50,-1.63,-0.72,-0.71,-0.71
459.48,1.20,1.20,1.90,1.90,-1.90,-1.45,-1.63,-0.70,-0.71,-0.70
464.07,1.16,1.16,1.86,1.86,-1.86,-1.41,-1.62,-0.70,-0.70,-0.70
468.71,1.13,1.13,1.82,1.82,-1.82,-1.36,-1.62,-0.69,-0.69,-0.69
473.40,1.09,1.09,1.77,1.77,-1.77,-1.31,-1.61,-0.69,-0.68,-0.68
478.13,1.06,1.06,1.73,1.73,-1.73,-1.27,-1.60,-0.67,-0.67,-0.67
482.91,1.02,1.02,1.68,1.69,-1.68,-1.23,-1.60,-0.67,-0.66,-0.66
487.74,0.99,0.99,1.64,1.64,-1.64,-1.19,-1.59,-0.65,-0.65,-0.66
492.62,0.95,0.95,1.59,1.59,-1.59,-1.15,-1.58,-0.64,-0.64,-0.65
497.55,0.91,0.91,1.55,1.54,-1.54,-1.12,-1.56,-0.63,-0.63,-0.64
502.52,0.87,0.87,1.50,1.49,-1.49,-1.08,-1.55,-0.63,-0.63,-0.63
