frequency,raw,smoothed,error,error_smoothed,equalization,parametric_eq,fixed_band_eq,equalized_raw,equalized_smoothed,target
20.00,3.89,3.88,-1.37,-1.37,1.36,1.54,0.41,5.25,5.25,5.25
20.20,3.90,3.90,-1.39,-1.38,1.38,1.54,0.43,5.28,5.28,5.28
20.40,3.92,3.92,-1.40,-1.40,1.40,1.54,0.44,5.32,5.31,5.31
20.61,3.93,3.93,-1.40,-1.41,1.41,1.53,0.45,5.34,5.34,5.33
20.81,3.95,3.94,-1.41,-1.42,1.42,1.53,0.47,5.37,5.36,5.36
21.02,3.96,3.96,-1.43,-1.43,1.42,1.52,0.48,5.38,5.38,5.39
21.23,3.97,3.97,-1.43,-1.43,1.42,1.52,0.50,5.39,5.40,5.40
21.44,3.99,3.99,-1.42,-1.43,1.42,1.52,0.51,5.41,5.41,5.41
21.66,4.01,4.00,-1.41,-1.41,1.41,1.51,0.53,5.42,5.42,5.42
21.87,4.02,4.02,-1.40,-1.40,1.40,1.51,0.54,5.42,5.42,5.42
22.09,4.04,4.04,-1.39,-1.39,1.39,1.50,0.56,5.42,5.42,5.43
22.31,4.06,4.06,-1.37,-1.37,1.37,1.50,0.58,5.42,5.42,5.43
22.54,4.08,4.08,-1.35,-1.35,1.35,1.49,0.60,5.42,5.42,5.43
22.76,4.10,4.10,-1.33,-1.32,1.33,1.49,0.61,5.42,5.42,5.43
22.99,4.12,4.12,-1.30,-1.30,1.31,1.48,0.63,5.42,5.42,5.42
23.22,4.14,4.13,-1.28,-1.28,1.29,1.48,0.65,5.42,5.42,5.41
23.45,4.15,4.15,-1.27,-1.26,1.27,1.47,0.67,5.42,5.42,5.41
23.69,4.17,4.16,-1.25,-1.25,1.25,1.47,0.69,5.42,5.42,5.41
23.92,4.18,4.18,-1.24,-1.24,1.24,1.46,0.71,5.42,5.41,5.41
24.16,4.19,4.19,-1.23,-1.23,1.23,1.46,0.73,5.41,5.41,5.42
24.40,4.20,4.20,-1.22,-1.22,1.21,1.45,0.75,5.41,5.41,5.42
24.65,4.21,4.21,-1.20,-1.21,1.20,1.45,0.77,5.41,5.41,5.41
24.89,4.22,4.22,-1.19,-1.19,1.19,1.44,0.79,5.41,5.41,5.41
25.14,4.23,4.23,-1.18,-1.18,1.18,1.43,0.82,5.41,5.41,5.41
25.39,4.24,4.23,-1.17,-1.17,1.18,1.43,0.84,5.41,5.41,5.41
25.65,4.24,4.24,-1.17,-1.17,1.17,1.42,0.86,5.40,5.41,5.41
25.91,4.24,4.24,-1.16,-1.16,1.16,1.41,0.88,5.40,5.40,5.39
26.16,4.24,4.24,-1.16,-1.16,1.16,1.41,0.90,5.39,5.39,5.39
26.43,4.24,4.24,-1.16,-1.15,1.15,1.40,0.92,5.39,5.39,5.39
26.69,4.24,4.24,-1.15,-1.15,1.15,1.40,0.94,5.39,5.39,5.39
26.96,4.25,4.24,-1.14,-1.15,1.15,1.39,0.96,5.39,5.39,5.39
27.23,4.25,4.25,-1.14,-1.14,1.14,1.38,0.98,5.39,5.39,5.39
27.50,4.25,4.25,-1.14,-1.14,1.14,1.37,1.00,5.38,5.38,5.39
27.77,4.25,4.25,-1.13,-1.13,1.13,1.37,1.02,5.38,5.38,5.38
28.05,4.25,4.25,-1.13,-1.12,1.13,1.36,1.04,5.37,5.37,5.37
28.33,4.25,4.25,-1.12,-1.12,1.12,1.35,1.06,5.37,5.37,5.36
28.62,4.25,4.25,-1.11,-1.11,1.12,1.34,1.07,5.36,5.36,5.36
28.90,4.25,4.25,-1.11,-1.11,1.11,1.34,1.09,5.36,5.36,5.36
29.19,4.25,4.25,-1.10,-1.11,1.10,1.33,1.10,5.35,5.35,5.35
29.48,4.25,4.25,-1.11,-1.10,1.09,1.32,1.11,5.34,5.34,5.36
29.78,4.26,4.26,-1.09,-1.09,1.08,1.31,1.13,5.34,5.34,5.34
30.08,4.27,4.27,-1.08,-1.08,1.07,1.30,1.13,5.34,5.34,5.34
30.38,4.28,4.28,-1.05,-1.06,1.06,1.29,1.14,5.34,5.34,5.33
30.68,4.29,4.28,-1.04,-1.04,1.05,1.29,1.15,5.34,5.33,5.33
30.99,4.29,4.29,-1.03,-1.03,1.04,1.28,1.15,5.33,5.33,5.32
31.30,4.29,4.29,-1.03,-1.03,1.03,1.27,1.16,5.32,5.32,5.31
31.61,4.28,4.28,-1.04,-1.03,1.03,1.26,1.16,5.31,5.31,5.31
31.93,4.28,4.27,-1.02,-1.03,1.03,1.25,1.16,5.30,5.30,5.30
32.24,4.27,4.27,-1.02,-1.03,1.03,1.24,1.15,5.29,5.29,5.29
32.57,4.26,4.26,-1.03,-1.03,1.03,1.23,1.15,5.28,5.28,5.29
32.89,4.25,4.25,-1.04,-1.03,1.03,1.22,1.15,5.27,5.27,5.28
33.22,4.24,4.24,-1.03,-1.03,1.02,1.21,1.14,5.26,5.26,5.27
33.55,4.24,4.24,-1.03,-1.03,1.02,1.20,1.13,5.26,5.26,5.27
33.89,4.24,4.24,-1.02,-1.02,1.02,1.19,1.12,5.26,5.26,5.25
34.23,4.24,4.23,-1.01,-1.01,1.02,1.18,1.11,5.26,5.26,5.25
34.57,4.23,4.22,-1.01,-1.01,1.02,1.17,1.10,5.25,5.25,5.24
34.92,4.21,4.21,-1.02,-1.02,1.02,1.15,1.09,5.23,5.23,5.22
35.27,4.20,4.20,-1.02,-1.02,1.02,1.14,1.08,5.21,5.21,5.22
35.62,4.19,4.19,-1.02,-1.02,1.01,1.13,1.06,5.20,5.20,5.21
35.97,4.18,4.18,-1.02,-1.02,1.01,1.12,1.05,5.18,5.19,5.19
36.33,4.19,4.18,-1.00,-1.00,1.00,1.11,1.03,5.19,5.18,5.19
36.70,4.19,4.19,-0.99,-0.99,0.99,1.09,1.02,5.18,5.18,5.18
37.06,4.20,4.19,-0.97,-0.97,0.98,1.08,1.00,5.18,5.17,5.16
37.43,4.20,4.19,-0.96,-0.96,0.97,1.07,0.99,5.17,5.16,5.16
37.81,4.19,4.19,-0.96,-0.95,0.96,1.05,0.97,5.15,5.15,5.14
38.19,4.19,4.18,-0.94,-0.95,0.95,1.04,0.96,5.14,5.13,5.13
38.57,4.18,4.18,-0.95,-0.94,0.94,1.03,0.94,5.11,5.12,5.12
38.95,4.18,4.18,-0.93,-0.93,0.93,1.01,0.93,5.10,5.10,5.11
39.34,4.18,4.18,-0.92,-0.92,0.91,1.00,0.91,5.09,5.09,5.09
39.74,4.18,4.18,-0.90,-0.90,0.90,0.98,0.90,5.08,5.08,5.08
40.14,4.19,4.18,-0.89,-0.89,0.88,0.97,0.89,5.07,5.07,5.07
40.54,4.19,4.19,-0.87,-0.87,0.87,0.95,0.87,5.06,5.06,5.06
40.94,4.20,4.20,-0.86,-0.85,0.86,0.94,0.86,5.05,5.06,5.05
41.35,4.21,4.20,-0.83,-0.84,0.85,0.92,0.85,5.06,5.05,5.04
41.76,4.21,4.20,-0.82,-0.83,0.84,0.91,0.84,5.05,5.04,5.03
42.18,4.19,4.19,-0.84,-0.83,0.84,0.89,0.83,5.02,5.03,5.02
42.60,4.17,4.17,-0.84,-0.84,0.84,0.87,0.82,5.00,5.00,5.01
43.03,4.15,4.15,-0.85,-0.85,0.83,0.85,0.81,4.98,4.98,5.00
43.46,4.13,4.13,-0.86,-0.85,0.84,0.84,0.80,4.96,4.97,4.98
43.90,4.12,4.12,-0.84,-0.84,0.84,0.82,0.79,4.96,4.96,4.96
44.33,4.11,4.10,-0.83,-0.84,0.85,0.80,0.79,4.95,4.95,4.94
44.78,4.08,4.08,-0.84,-0.84,0.85,0.78,0.78,4.93,4.93,4.92
45.23,4.05,4.05,-0.85,-0.85,0.86,0.76,0.78,4.91,4.91,4.90
45.68,4.02,4.02,-0.87,-0.87,0.86,0.74,0.77,4.88,4.88,4.88
46.13,3.99,3.99,-0.88,-0.88,0.87,0.72,0.77,4.86,4.86,4.86
46.60,3.96,3.96,-0.90,-0.89,0.88,0.70,0.76,4.84,4.84,4.85
47.06,3.94,3.94,-0.90,-0.89,0.89,0.68,0.76,4.83,4.83,4.83
47.53,3.93,3.92,-0.89,-0.90,0.91,0.66,0.76,4.83,4.83,4.82
48.01,3.90,3.89,-0.91,-0.90,0.92,0.64,0.76,4.82,4.81,4.80
48.49,3.86,3.85,-0.92,-0.92,0.93,0.62,0.75,4.79,4.79,4.77
48.97,3.80,3.80,-0.95,-0.94,0.94,0.60,0.75,4.74,4.74,4.74
49.46,3.75,3.75,-0.96,-0.96,0.96,0.58,0.75,4.70,4.70,4.71
49.96,3.70,3.70,-0.98,-0.98,0.97,0.55,0.75,4.66,4.67,4.68
50.46,3.68,3.68,-0.99,-0.99,0.98,0.53,0.75,4.65,4.65,4.67
50.96,3.66,3.66,-0.99,-0.98,0.98,0.51,0.75,4.64,4.64,4.64
51.47,3.64,3.64,-0.98,-0.98,0.99,0.48,0.75,4.63,4.63,4.61
51.99,3.62,3.61,-0.97,-0.98,0.99,0.46,0.75,4.61,4.61,4.59
52.51,3.59,3.59,-0.99,-0.98,0.99,0.43,0.75,4.58,4.58,4.57
53.03,3.56,3.56,-0.99,-0.99,0.99,0.41,0.75,4.55,4.55,4.55
53.56,3.53,3.53,-1.00,-1.00,0.99,0.38,0.75,4.52,4.52,4.53
54.10,3.51,3.51,-0.99,-0.99,0.99,0.35,0.74,4.49,4.49,4.50
54.64,3.49,3.49,-0.99,-0.98,0.98,0.33,0.74,4.47,4.47,4.47
55.18,3.48,3.47,-0.97,-0.97,0.98,0.30,0.73,4.45,4.45,4.45
55.74,3.46,3.46,-0.96,-0.97,0.97,0.27,0.73,4.42,4.42,4.42
56.29,3.45,3.45,-0.96,-0.95,0.95,0.24,0.72,4.40,4.40,4.40
56.86,3.44,3.44,-0.94,-0.94,0.94,0.21,0.71,4.38,4.38,4.37
57.42,3.44,3.43,-0.91,-0.92,0.92,0.18,0.70,4.36,4.35,4.35
58.00,3.43,3.43,-0.90,-0.90,0.90,0.15,0.69,4.33,4.33,4.33
58.58,3.43,3.43,-0.88,-0.88,0.88,0.12,0.68,4.30,4.30,4.31
59.16,3.43,3.43,-0.86,-0.85,0.85,0.09,0.66,4.28,4.28,4.29
59.76,3.45,3.44,-0.82,-0.82,0.81,0.06,0.64,4.26,4.26,4.27
60.35,3.46,3.46,-0.78,-0.78,0.78,0.02,0.62,4.23,4.23,4.23
60.96,3.48,3.47,-0.73,-0.73,0.73,-0.01,0.60,4.21,4.20,4.21
61.57,3.49,3.49,-0.68,-0.68,0.68,-0.04,0.58,4.17,4.17,4.17
62.18,3.51,3.51,-0.63,-0.63,0.62,-0.08,0.55,4.13,4.14,4.13
62.80,3.55,3.54,-0.56,-0.56,0.56,-0.11,0.52,4.11,4.11,4.11
63.43,3.58,3.58,-0.50,-0.50,0.50,-0.15,0.49,4.08,4.08,4.07
64.07,3.62,3.62,-0.43,-0.43,0.44,-0.18,0.45,4.05,4.05,4.05
64.71,3.66,3.65,-0.37,-0.37,0.37,-0.22,0.41,4.03,4.02,4.02
65.35,3.70,3.70,-0.30,-0.30,0.30,-0.26,0.37,4.00,3.99,3.99
66.01,3.74,3.74,-0.23,-0.23,0.23,-0.30,0.33,3.96,3.96,3.97
66.67,3.79,3.79,-0.15,-0.15,0.15,-0.34,0.28,3.94,3.94,3.94
67.33,3.84,3.83,-0.07,-0.07,0.07,-0.37,0.23,3.91,3.91,3.91
68.01,3.89,3.89,0.01,0.01,-0.01,-0.41,0.18,3.88,3.87,3.88
68.69,3.94,3.94,0.09,0.09,-0.10,-0.46,0.13,3.84,3.84,3.85
69.37,4.00,4.00,0.18,0.18,-0.18,-0.50,0.07,3.81,3.81,3.81
70.07,4.06,4.06,0.28,0.28,-0.27,-0.54,0.02,3.78,3.79,3.78
70.77,4.13,4.12,0.37,0.37,-0.37,-0.58,-0.04,3.76,3.76,3.76
71.48,4.19,4.18,0.46,0.46,-0.46,-0.63,-0.10,3.73,3.72,3.72
72.19,4.24,4.24,0.55,0.55,-0.56,-0.67,-0.17,3.68,3.69,3.69
72.91,4.30,4.30,0.65,0.65,-0.65,-0.72,-0.23,3.65,3.65,3.65
73.64,4.36,4.36,0.74,0.74,-0.74,-0.76,-0.30,3.62,3.62,3.61
74.38,4.42,4.42,0.83,0.84,-0.83,-0.81,-0.37,3.59,3.59,3.59
75.12,4.48,4.47,0.93,0.92,-0.92,-0.85,-0.44,3.56,3.56,3.55
75.87,4.53,4.52,1.01,1.00,-1.00,-0.90,-0.51,3.53,3.52,3.52
76.63,4.57,4.57,1.08,1.08,-1.08,-0.95,-0.58,3.49,3.49,3.49
77.40,4.61,4.61,1.15,1.16,-1.16,-1.00,-0.66,3.45,3.45,3.46
78.17,4.66,4.66,1.24,1.24,-1.24,-1.05,-0.73,3.42,3.42,3.42
78.95,4.72,4.71,1.32,1.32,-1.31,-1.10,-0.81,3.40,3.39,3.39
79.74,4.75,4.75,1.39,1.39,-1.39,-1.15,-0.89,3.36,3.36,3.36
80.54,4.79,4.79,1.46,1.46,-1.47,-1.20,-0.97,3.32,3.32,3.33
81.35,4.83,4.83,1.54,1.54,-1.54,-1.25,-1.05,3.28,3.29,3.29
82.16,4.88,4.87,1.62,1.61,-1.62,-1.31,-1.13,3.26,3.26,3.26
82.98,4.92,4.91,1.69,1.69,-1.69,-1.36,-1.21,3.23,3.22,3.23
83.81,4.95,4.95,1.76,1.77,-1.76,-1.42,-1.30,3.18,3.19,3.18
84.65,4.99,4.98,1.84,1.84,-1.83,-1.47,-1.38,3.15,3.15,3.14
85.50,5.02,5.02,1.90,1.91,-1.90,-1.53,-1.47,3.11,3.12,3.12
86.35,5.05,5.05,1.97,1.97,-1.97,-1.58,-1.56,3.08,3.08,3.08
87.22,5.08,5.07,2.04,2.04,-2.03,-1.64,-1.65,3.05,3.04,3.04
88.09,5.10,5.10,2.10,2.10,-2.09,-1.70,-1.74,3.00,3.00,3.00
88.97,5.12,5.11,2.15,2.15,-2.16,-1.76,-1.83,2.96,2.96,2.97
89.86,5.13,5.13,2.20,2.21,-2.22,-1.81,-1.93,2.91,2.91,2.92
90.76,5.15,5.15,2.27,2.27,-2.28,-1.87,-2.02,2.87,2.87,2.87
91.66,5.18,5.17,2.34,2.34,-2.34,-1.93,-2.12,2.83,2.83,2.84
92.58,5.21,5.20,2.42,2.41,-2.41,-1.99,-2.22,2.80,2.79,2.79
93.51,5.22,5.22,2.46,2.47,-2.47,-2.05,-2.32,2.74,2.75,2.75
94.44,5.25,5.24,2.54,2.54,-2.54,-2.12,-2.42,2.71,2.71,2.71
95.39,5.27,5.27,2.60,2.61,-2.60,-2.18,-2.52,2.66,2.66,2.66
96.34,5.29,5.29,2.68,2.68,-2.67,-2.24,-2.62,2.62,2.62,2.61
97.30,5.31,5.30,2.74,2.73,-2.73,-2.30,-2.72,2.58,2.57,2.56
98.28,5.31,5.31,2.79,2.79,-2.79,-2.36,-2.83,2.51,2.52,2.52
99.26,5.32,5.32,2.84,2.85,-2.85,-2.43,-2.93,2.46,2.47,2.47
100.25,5.34,5.33,2.91,2.90,-2.91,-2.49,-3.04,2.43,2.42,2.43
101.25,5.35,5.35,2.97,2.97,-2.97,-2.56,-3.14,2.38,2.38,2.38
102.27,5.36,5.36,3.02,3.02,-3.02,-2.62,-3.25,2.34,2.34,2.34
103.29,5.37,5.36,3.09,3.08,-3.08,-2.68,-3.36,2.29,2.29,2.28
104.32,5.37,5.37,3.12,3.13,-3.13,-2.75,-3.46,2.24,2.24,2.24
105.37,5.38,5.38,3.18,3.18,-3.18,-2.81,-3.57,2.19,2.19,2.20
106.42,5.39,5.38,3.24,3.23,-3.24,-2.88,-3.67,2.15,2.15,2.15
107.48,5.39,5.39,3.28,3.29,-3.29,-2.94,-3.77,2.10,2.10,2.10
108.56,5.40,5.40,3.35,3.35,-3.34,-3.01,-3.87,2.05,2.05,2.05
109.64,5.40,5.40,3.40,3.40,-3.39,-3.07,-3.97,2.00,2.01,2.00
110.74,5.41,5.40,3.45,3.45,-3.45,-3.14,-4.07,1.96,1.96,1.96
111.85,5.40,5.40,3.49,3.50,-3.50,-3.20,-4.16,1.90,1.90,1.91
112.97,5.40,5.40,3.55,3.55,-3.55,-3.27,-4.25,1.85,1.85,1.84
114.10,5.40,5.39,3.60,3.60,-3.60,-3.33,-4.34,1.80,1.79,1.80
115.24,5.39,5.39,3.64,3.65,-3.65,-3.40,-4.42,1.74,1.74,1.74
116.39,5.39,5.39,3.70,3.70,-3.70,-3.46,-4.49,1.69,1.69,1.69
117.55,5.39,5.39,3.75,3.75,-3.75,-3.53,-4.56,1.64,1.64,1.64
118.73,5.39,5.38,3.80,3.80,-3.80,-3.59,-4.63,1.59,1.59,1.58
119.92,5.38,5.38,3.84,3.84,-3.84,-3.65,-4.69,1.53,1.53,1.54
121.12,5.37,5.37,3.88,3.89,-3.89,-3.72,-4.75,1.47,1.48,1.49
122.33,5.38,5.38,3.94,3.94,-3.94,-3.78,-4.79,1.43,1.43,1.43
123.55,5.39,5.38,4.00,3.99,-3.99,-3.84,-4.84,1.39,1.39,1.39
124.79,5.39,5.38,4.05,4.04,-4.04,-3.90,-4.87,1.35,1.34,1.34
126.03,5.38,5.38,4.09,4.09,-4.09,-3.96,-4.90,1.29,1.29,1.29
127.29,5.38,5.37,4.14,4.14,-4.14,-4.02,-4.92,1.24,1.24,1.24
128.57,5.37,5.37,4.19,4.18,-4.18,-4.08,-4.94,1.19,1.18,1.18
129.85,5.36,5.36,4.22,4.23,-4.22,-4.14,-4.95,1.13,1.13,1.13
131.15,5.35,5.35,4.26,4.27,-4.27,-4.20,-4.96,1.08,1.08,1.08
132.46,5.35,5.34,4.31,4.30,-4.31,-4.26,-4.95,1.04,1.04,1.04
133.79,5.34,5.34,4.34,4.34,-4.35,-4.32,-4.95,0.99,0.99,1.00
135.12,5.33,5.33,4.38,4.38,-4.38,-4.37,-4.93,0.94,0.95,0.94
136.48,5.33,5.32,4.42,4.42,-4.42,-4.43,-4.92,0.91,0.91,0.91
137.84,5.32,5.32,4.45,4.46,-4.45,-4.48,-4.90,0.87,0.87,0.86
139.22,5.31,5.30,4.50,4.49,-4.48,-4.53,-4.88,0.82,0.82,0.81
140.61,5.29,5.29,4.52,4.51,-4.51,-4.58,-4.85,0.77,0.78,0.77
142.02,5.28,5.28,4.53,4.54,-4.54,-4.63,-4.83,0.74,0.74,0.75
143.44,5.27,5.27,4.56,4.56,-4.57,-4.68,-4.80,0.70,0.70,0.71
144.87,5.26,5.26,4.59,4.59,-4.59,-4.73,-4.76,0.66,0.66,0.66
146.32,5.25,5.25,4.62,4.62,-4.62,-4.78,-4.73,0.63,0.63,0.63
147.78,5.24,5.24,4.64,4.64,-4.64,-4.82,-4.70,0.59,0.59,0.60
149.26,5.23,5.22,4.67,4.67,-4.67,-4.87,-4.67,0.56,0.56,0.56
150.75,5.21,5.21,4.70,4.69,-4.69,-4.91,-4.64,0.51,0.52,0.51
152.26,5.20,5.19,4.72,4.72,-4.72,-4.95,-4.61,0.48,0.48,0.48
153.78,5.18,5.18,4.74,4.74,-4.74,-4.99,-4.58,0.44,0.44,0.44
155.32,5.16,5.16,4.76,4.76,-4.76,-5.03,-4.55,0.39,0.40,0.39
156.88,5.14,5.14,4.78,4.78,-4.78,-5.06,-4.52,0.36,0.36,0.36
158.44,5.12,5.12,4.80,4.80,-4.80,-5.10,-4.50,0.32,0.32,0.32
160.03,5.10,5.09,4.82,4.82,-4.81,-5.13,-4.48,0.28,0.28,0.28
161.63,5.07,5.07,4.83,4.83,-4.83,-5.16,-4.46,0.24,0.24,0.23
163.24,5.04,5.04,4.84,4.84,-4.84,-5.19,-4.44,0.20,0.20,0.19
164.88,5.01,5.01,4.84,4.85,-4.85,-5.21,-4.43,0.16,0.16,0.16
166.53,4.98,4.98,4.85,4.85,-4.85,-5.24,-4.42,0.12,0.12,0.12
168.19,4.95,4.94,4.86,4.86,-4.86,-5.26,-4.41,0.09,0.09,0.09
169.87,4.91,4.91,4.86,4.86,-4.86,-5.28,-4.40,0.05,0.05,0.05
171.57,4.88,4.88,4.87,4.86,-4.86,-5.30,-4.40,0.01,0.01,0.01
173.29,4.85,4.84,4.87,4.87,-4.87,-5.32,-4.40,-0.02,-0.03,-0.02
175.02,4.82,4.82,4.88,4.88,-4.88,-5.33,-4.41,-0.06,-0.06,-0.06
176.77,4.79,4.79,4.89,4.89,-4.90,-5.35,-4.42,-0.11,-0.11,-0.10
178.54,4.77,4.76,4.92,4.91,-4.92,-5.36,-4.43,-0.15,-0.15,-0.15
180.32,4.75,4.75,4.93,4.93,-4.95,-5.37,-4.45,-0.20,-0.19,-0.18
182.13,4.75,4.75,4.96,4.97,-4.98,-5.37,-4.47,-0.23,-0.23,-0.21
183.95,4.76,4.75,5.01,5.01,-5.01,-5.38,-4.49,-0.25,-0.25,-0.26
185.79,4.77,4.76,5.05,5.05,-5.04,-5.38,-4.52,-0.28,-0.28,-0.29
187.65,4.77,4.77,5.10,5.09,-5.08,-5.38,-4.55,-0.31,-0.31,-0.33
189.52,4.77,4.76,5.13,5.12,-5.12,-5.38,-4.58,-0.35,-0.35,-0.36
191.42,4.76,4.76,5.15,5.15,-5.15,-5.38,-4.61,-0.40,-0.39,-0.39
193.33,4.76,4.76,5.17,5.17,-5.18,-5.37,-4.65,-0.43,-0.42,-0.42
195.27,4.76,4.76,5.20,5.20,-5.21,-5.37,-4.69,-0.45,-0.45,-0.45
197.22,4.76,4.76,5.23,5.23,-5.23,-5.36,-4.74,-0.47,-0.47,-0.47
199.19,4.75,4.75,5.26,5.25,-5.24,-5.34,-4.78,-0.49,-0.49,-0.51
201.18,4.74,4.73,5.26,5.26,-5.25,-5.33,-4.83,-0.52,-0.52,-0.53
203.19,4.72,4.72,5.26,5.26,-5.26,-5.32,-4.88,-0.55,-0.55,-0.54
205.23,4.70,4.70,5.27,5.26,-5.27,-5.30,-4.93,-0.57,-0.57,-0.57
207.28,4.69,4.68,5.26,5.26,-5.27,-5.28,-4.98,-0.58,-0.59,-0.57
209.35,4.67,4.67,5.27,5.27,-5.27,-5.26,-5.04,-0.60,-0.60,-0.60
211.44,4.65,4.65,5.27,5.27,-5.26,-5.23,-5.09,-0.62,-0.61,-0.62
213.56,4.64,4.63,5.26,5.26,-5.26,-5.21,-5.14,-0.62,-0.62,-0.63
215.69,4.62,4.61,5.25,5.25,-5.25,-5.18,-5.19,-0.63,-0.63,-0.63
217.85,4.59,4.59,5.23,5.23,-5.24,-5.15,-5.24,-0.65,-0.65,-0.64
220.03,4.57,4.57,5.22,5.22,-5.22,-5.12,-5.29,-0.66,-0.66,-0.65
222.23,4.55,4.55,5.21,5.21,-5.21,-5.09,-5.34,-0.66,-0.66,-0.67
224.45,4.53,4.53,5.18,5.19,-5.19,-5.06,-5.38,-0.66,-0.66,-0.66
226.70,4.51,4.51,5.17,5.17,-5.17,-5.02,-5.42,-0.66,-0.66,-0.66
228.96,4.49,4.49,5.15,5.14,-5.14,-4.99,-5.45,-0.66,-0.66,-0.66
231.25,4.47,4.46,5.12,5.12,-5.12,-4.95,-5.48,-0.65,-0.65,-0.65
233.57,4.44,4.44,5.09,5.09,-5.09,-4.91,-5.51,-0.65,-0.65,-0.65
235.90,4.42,4.42,5.07,5.06,-5.06,-4.87,-5.53,-0.64,-0.65,-0.65
238.26,4.39,4.38,5.04,5.03,-5.03,-4.83,-5.54,-0.64,-0.64,-0.65
240.64,4.36,4.35,5.00,4.99,-4.99,-4.79,-5.54,-0.64,-0.64,-0.64
243.05,4.32,4.32,4.94,4.95,-4.96,-4.74,-5.55,-0.64,-0.63,-0.63
245.48,4.30,4.30,4.91,4.91,-4.92,-4.70,-5.53,-0.62,-0.62,-0.62
247.93,4.27,4.27,4.87,4.88,-4.87,-4.65,-5.52,-0.61,-0.60,-0.60
250.41,4.25,4.24,4.85,4.83,-4.83,-4.60,-5.49,-0.58,-0.59,-0.60
252.92,4.21,4.21,4.79,4.79,-4.79,-4.55,-5.46,-0.58,-0.58,-0.58
255.45,4.17,4.18,4.72,4.74,-4.74,-4.50,-5.42,-0.57,-0.56,-0.56
258.00,4.15,4.14,4.69,4.68,-4.69,-4.45,-5.37,-0.54,-0.55,-0.54
260.58,4.12,4.11,4.65,4.64,-4.64,-4.40,-5.31,-0.52,-0.53,-0.53
263.19,4.08,4.08,4.58,4.59,-4.59,-4.35,-5.25,-0.51,-0.50,-0.51
265.82,4.05,4.05,4.54,4.54,-4.53,-4.29,-5.17,-0.48,-0.48,-0.49
268.48,4.01,4.01,4.48,4.47,-4.47,-4.24,-5.10,-0.47,-0.47,-0.47
271.16,3.97,3.96,4.41,4.41,-4.41,-4.18,-5.01,-0.45,-0.45,-0.44
273.87,3.92,3.92,4.35,4.35,-4.35,-4.13,-4.92,-0.44,-0.43,-0.43
276.61,3.88,3.88,4.28,4.29,-4.29,-4.07,-4.82,-0.41,-0.41,-0.41
279.38,3.84,3.83,4.23,4.22,-4.22,-4.01,-4.73,-0.39,-0.39,-0.39
282.17,3.79,3.79,4.16,4.16,-4.16,-3.95,-4.62,-0.37,-0.37,-0.38
284.99,3.74,3.74,4.09,4.09,-4.09,-3.89,-4.51,-0.36,-0.35,-0.35
287.84,3.69,3.69,4.02,4.03,-4.03,-3.83,-4.40,-0.34,-0.33,-0.34
290.72,3.65,3.64,3.96,3.96,-3.96,-3.77,-4.29,-0.31,-0.31,-0.31
293.63,3.60,3.59,3.89,3.89,-3.89,-3.71,-4.17,-0.29,-0.29,-0.30
296.57,3.54,3.54,3.81,3.82,-3.81,-3.65,-4.06,-0.27,-0.27,-0.27
299.53,3.49,3.48,3.74,3.74,-3.73,-3.59,-3.94,-0.25,-0.25,-0.25
302.53,3.43,3.43,3.66,3.66,-3.65,-3.53,-3.82,-0.23,-0.23,-0.24
305.55,3.37,3.37,3.57,3.58,-3.57,-3.47,-3.70,-0.21,-0.20,-0.20
308.61,3.31,3.31,3.49,3.49,-3.49,-3.40,-3.58,-0.18,-0.18,-0.18
311.69,3.25,3.25,3.41,3.40,-3.40,-3.34,-3.46,-0.16,-0.16,-0.16
314.81,3.19,3.18,3.31,3.31,-3.31,-3.28,-3.34,-0.13,-0.13,-0.12
317.96,3.12,3.12,3.22,3.23,-3.23,-3.21,-3.22,-0.11,-0.11,-0.10
321.14,3.06,3.06,3.15,3.14,-3.14,-3.15,-3.10,-0.09,-0.09,-0.09
324.35,2.99,2.99,3.06,3.06,-3.06,-3.08,-2.98,-0.07,-0.07,-0.07
327.59,2.93,2.92,2.97,2.97,-2.98,-3.02,-2.87,-0.05,-0.05,-0.04
330.87,2.86,2.86,2.88,2.89,-2.90,-2.95,-2.75,-0.04,-0.03,-0.03
334.18,2.81,2.80,2.82,2.81,-2.82,-2.88,-2.64,-0.01,-0.01,-0.01
337.52,2.75,2.75,2.74,2.74,-2.73,-2.82,-2.53,0.01,0.01,0.01
340.90,2.69,2.69,2.65,2.66,-2.65,-2.75,-2.42,0.03,0.04,0.04
344.30,2.64,2.63,2.58,2.58,-2.57,-2.68,-2.31,0.07,0.06,0.05
347.75,2.56,2.56,2.49,2.49,-2.48,-2.62,-2.20,0.07,0.08,0.07
351.23,2.50,2.50,2.41,2.41,-2.40,-2.55,-2.09,0.10,0.10,0.09
354.74,2.43,2.42,2.32,2.31,-2.31,-2.48,-1.99,0.11,0.11,0.11
358.28,2.35,2.35,2.22,2.23,-2.23,-2.41,-1.89,0.12,0.12,0.12
361.87,2.28,2.28,2.14,2.14,-2.15,-2.34,-1.79,0.13,0.13,0.14
365.49,2.23,2.22,2.07,2.06,-2.07,-2.27,-1.69,0.15,0.14,0.16
369.14,2.16,2.16,1.99,1.99,-2.01,-2.20,-1.59,0.15,0.16,0.17
372.83,2.12,2.12,1.93,1.93,-1.94,-2.13,-1.49,0.17,0.17,0.19
376.56,2.08,2.08,1.88,1.88,-1.89,-2.06,-1.39,0.19,0.19,0.19
380.33,2.06,2.05,1.83,1.84,-1.83,-1.99,-1.30,0.23,0.22,0.22
384.13,2.02,2.02,1.79,1.79,-1.78,-1.92,-1.21,0.24,0.24,0.23
387.97,1.98,1.97,1.74,1.73,-1.72,-1.85,-1.12,0.26,0.25,0.24
391.85,1.92,1.92,1.67,1.67,-1.66,-1.77,-1.03,0.26,0.26,0.25
395.77,1.86,1.86,1.59,1.60,-1.59,-1.70,-0.94,0.27,0.27,0.27
399.73,1.80,1.79,1.52,1.52,-1.52,-1.63,-0.85,0.28,0.28,0.28
403.72,1.73,1.73,1.44,1.44,-1.44,-1.55,-0.76,0.28,0.29,0.28
407.76,1.66,1.66,1.36,1.36,-1.36,-1.48,-0.68,0.29,0.29,0.29
411.84,1.59,1.59,1.28,1.28,-1.28,-1.40,-0.60,0.30,0.30,0.31
415.96,1.52,1.52,1.20,1.20,-1.20,-1.32,-0.52,0.31,0.31,0.32
420.12,1.45,1.45,1.12,1.12,-1.13,-1.25,-0.44,0.32,0.32,0.33
424.32,1.39,1.38,1.05,1.05,-1.05,-1.17,-0.36,0.34,0.33,0.34
428.56,1.32,1.32,0.97,0.97,-0.97,-1.09,-0.28,0.34,0.35,0.35
432.85,1.26,1.26,0.90,0.90,-0.90,-1.01,-0.21,0.36,0.36,0.36
437.18,1.20,1.19,0.83,0.82,-0.83,-0.93,-0.14,0.37,0.37,0.36
441.55,1.13,1.13,0.74,0.75,-0.75,-0.85,-0.07,0.38,0.38,0.38
445.96,1.06,1.06,0.66,0.67,-0.67,-0.77,-0.00,0.38,0.39,0.39
450.42,1.00,1.00,0.60,0.59,-0.59,-0.69,0.07,0.41,0.41,0.40
454.93,0.93,0.93,0.51,0.51,-0.50,-0.61,0.13,0.43,0.43,0.42
459.48,0.86,0.85,0.43,0.42,-0.41,-0.53,0.19,0.45,0.45,0.43
464.07,0.77,0.77,0.32,0.32,-0.31,-0.45,0.25,0.46,0.46,0.45
468.71,0.67,0.67,0.20,0.21,-0.20,-0.36,0.30,0.46,0.47,0.47
473.40,0.58,0.57,0.10,0.09,-0.10,-0.28,0.36,0.48,0.48,0.48
478.13,0.48,0.48,-0.02,-0.01,0.01,-0.19,0.41,0.49,0.49,0.50
482.91,0.39,0.39,-0.12,-0.12,0.12,-0.11,0.46,0.51,0.50,0.51
487.74,0.30,0.29,-0.23,-0.23,0.22,-0.02,0.50,0.52,0.51,0.53
492.62,0.21,0.21,-0.34,-0.33,0.32,0.07,0.54,0.52,0.52,0.54
497.55,0.13,0.13,-0.43,-0.43,0.41,0.15,0.58,0.54,0.54,0.55
502.52,0.06,0.06,-0.52,-0.51,0.51,0.24,0.62,0.57,0.57,0.57
507.55,-0.00,-0.00,-0.59,-0.59,0.61,0.33,0.66,0.61,0.61,0.58
512.62,-0.06,-0.07,-0.67,-0.67,0.71,0.41,0.69,0.65,0.65,0.60
517.75,-0.14,-0.15,-0.77,-0.77,0.81,0.50,0.72,0.67,0.66,0.62
522.93,-0.24,-0.25,-0.88,-0.89,0.90,0.59,0.74,0.66,0.65,0.64
528.16,-0.36,-0.36,-1.01,-1.02,0.99,0.67,0.77,0.63,0.63,0.65
533.44,-0.45,-0.44,-1.12,-1.11,1.07,0.76,0.79,0.61,0.63,0.67
538.77,-0.50,-0.48,-1.19,-1.17,1.13,0.85,0.81,0.62,0.65,0.69
