frequency,raw
20.00,7.32
20.20,7.49
20.40,7.65
20.61,7.81
20.81,7.97
21.02,8.14
21.23,8.30
21.44,8.47
21.66,8.63
21.87,8.80
22.09,8.96
22.31,9.11
22.54,9.26
22.76,9.41
22.99,9.55
23.22,9.68
23.45,9.80
23.69,9.93
23.92,10.04
24.16,10.16
24.40,10.27
24.65,10.38
24.89,10.48
25.14,10.58
25.39,10.69
25.65,10.78
25.91,10.87
26.16,10.96
26.43,11.04
26.69,11.12
26.96,11.19
27.23,11.26
27.50,11.33
27.77,11.39
28.05,11.46
28.33,11.52
28.62,11.57
28.90,11.62
29.19,11.67
29.48,11.70
29.78,11.73
30.08,11.76
30.38,11.78
30.68,11.80
30.99,11.82
31.30,11.83
31.61,11.85
31.93,11.86
32.24,11.87
32.57,11.89
32.89,11.91
33.22,11.94
33.55,11.99
33.89,12.03
34.23,12.07
34.57,12.10
34.92,12.10
35.27,12.09
35.62,12.06
35.97,12.02
36.33,11.97
36.70,11.92
37.06,11.87
37.43,11.81
37.81,11.74
38.19,11.67
38.57,11.60
38.95,11.53
39.34,11.46
39.74,11.38
40.14,11.31
40.54,11.24
40.94,11.17
41.35,11.10
41.76,11.03
42.18,10.96
42.60,10.89
43.03,10.83
43.46,10.77
43.90,10.71
44.33,10.65
44.78,10.59
45.23,10.53
45.68,10.48
46.13,10.43
46.60,10.37
47.06,10.32
47.53,10.28
48.01,10.24
48.49,10.19
48.97,10.13
49.46,10.06
49.96,9.99
50.46,9.96
50.96,9.94
51.47,9.94
51.99,9.92
52.51,9.89
53.03,9.86
53.56,9.82
54.10,9.77
54.64,9.71
55.18,9.64
55.74,9.57
56.29,9.48
56.86,9.40
57.42,9.32
58.00,9.25
58.58,9.18
59.16,9.12
59.76,9.06
60.35,9.00
60.96,8.94
61.57,8.88
62.18,8.80
62.80,8.72
63.43,8.63
64.07,8.54
64.71,8.44
65.35,8.34
66.01,8.24
66.67,8.15
67.33,8.05
68.01,7.96
68.69,7.88
69.37,7.80
70.07,7.73
70.77,7.67
71.48,7.61
72.19,7.54
72.91,7.48
73.64,7.44
74.38,7.40
75.12,7.37
75.87,7.34
76.63,7.31
77.40,7.28
78.17,7.24
78.95,7.20
79.74,7.16
80.54,7.10
81.35,7.05
82.16,6.98
82.98,6.92
83.81,6.86
84.65,6.79
85.50,6.72
86.35,6.65
87.22,6.58
88.09,6.50
88.97,6.43
89.86,6.36
90.76,6.29
91.66,6.21
92.58,6.14
93.51,6.06
94.44,5.98
95.39,5.89
96.34,5.81
97.30,5.72
98.28,5.63
99.26,5.54
100.25,5.44
101.25,5.35
102.27,5.25
103.29,5.15
104.32,5.05
105.37,4.93
106.42,4.81
107.48,4.69
108.56,4.56
109.64,4.45
110.74,4.34
111.85,4.26
112.97,4.19
114.10,4.12
115.24,4.05
116.39,3.96
117.55,3.87
118.73,3.77
119.92,3.65
121.12,3.54
122.33,3.44
123.55,3.34
124.79,3.26
126.03,3.19
127.29,3.13
128.57,3.06
129.85,2.99
131.15,2.92
132.46,2.84
133.79,2.76
135.12,2.68
136.48,2.60
137.84,2.52
139.22,2.44
140.61,2.36
142.02,2.28
143.44,2.20
144.87,2.12
146.32,2.03
147.78,1.94
149.26,1.85
150.75,1.76
152.26,1.67
153.78,1.58
155.32,1.50
156.88,1.41
158.44,1.33
160.03,1.24
161.63,1.15
163.24,1.06
164.88,0.98
166.53,0.89
168.19,0.80
169.87,0.71
171.57,0.63
173.29,0.55
175.02,0.47
176.77,0.39
178.54,0.31
180.32,0.23
182.13,0.14
183.95,0.06
185.79,-0.02
187.65,-0.10
189.52,-0.18
191.42,-0.27
193.33,-0.35
195.27,-0.43
197.22,-0.51
199.19,-0.58
201.18,-0.65
203.19,-0.72
205.23,-0.79
207.28,-0.86
209.35,-0.94
211.44,-1.01
213.56,-1.08
215.69,-1.15
217.85,-1.21
220.03,-1.28
222.23,-1.35
224.45,-1.42
226.70,-1.50
228.96,-1.59
231.25,-1.67
233.57,-1.74
235.90,-1.80
238.26,-1.84
240.64,-1.88
243.05,-1.91
245.48,-1.94
247.93,-1.98
250.41,-2.02
252.92,-2.06
255.45,-2.10
258.00,-2.15
260.58,-2.19
263.19,-2.24
265.82,-2.28
268.48,-2.33
271.16,-2.37
273.87,-2.42
276.61,-2.46
279.38,-2.50
282.17,-2.55
284.99,-2.59
287.84,-2.64
290.72,-2.68
293.63,-2.73
296.57,-2.78
299.53,-2.83
302.53,-2.88
305.55,-2.92
308.61,-2.95
311.69,-2.96
314.81,-2.97
317.96,-2.97
321.14,-2.97
324.35,-2.97
327.59,-2.98
330.87,-2.98
334.18,-2.99
337.52,-3.00
340.90,-3.01
344.30,-3.02
347.75,-3.04
351.23,-3.04
354.74,-3.05
358.28,-3.05
361.87,-3.05
365.49,-3.05
369.14,-3.06
372.83,-3.06
376.56,-3.07
380.33,-3.07
384.13,-3.08
387.97,-3.08
391.85,-3.08
395.77,-3.08
399.73,-3.08
403.72,-3.07
407.76,-3.06
411.84,-3.05
415.96,-3.04
420.12,-3.02
424.32,-3.00
428.56,-2.97
432.85,-2.95
437.18,-2.92
441.55,-2.90
445.96,-2.88
450.42,-2.86
454.93,-2.84
459.48,-2.81
464.07,-2.79
468.71,-2.76
473.40,-2.74
478.13,-2.71
482.91,-2.69
487.74,-2.66
492.62,-2.62
497.55,-2.59
502.52,-2.56
507.55,-2.52
512.62,-2.49
517.75,-2.45
522.93,-2.42
528.16,-2.38
533.44,-2.35
538.77,-2.31
544.16,-2.28
549.60,-2.24
555.10,-2.20
560.65,-2.17
566.25,-2.13
571.92,-2.09
577.64,-2.05
583.41,-2.01
589.25,-1.97
595.14,-1.93
601.09,-1.89
607.10,-1.84
613.17,-1.80
619.30,-1.76
625.50,-1.71
631.75,-1.67
638.07,-1.63
644.45,-1.59
650.89,-1.56
657.40,-1.53
663.98,-1.49
670.62,-1.46
677.32,-1.43
684.10,-1.40
690.94,-1.38
697.85,-1.35
704.83,-1.31
711.87,-1.28
718.99,-1.24
726.18,-1.21
733.44,-1.17
740.78,-1.14
748.19,-1.10
755.67,-1.06
763.23,-1.02
770.86,-0.97
778.57,-0.94
786.35,-0.90
794.22,-0.87
802.16,-0.83
810.18,-0.80
818.28,-0.76
826.46,-0.73
834.73,-0.69
843.08,-0.66
851.51,-0.62
860.02,-0.59
868.62,-0.55
877.31,-0.52
886.08,-0.48
894.94,-0.45
903.89,-0.42
912.93,-0.39
922.06,-0.35
931.28,-0.31
940.59,-0.27
950.00,-0.23
959.50,-0.18
969.09,-0.13
978.78,-0.08
988.57,-0.04
998.46,-0.00
1008.44,0.02
1018.53,0.05
1028.71,0.07
1039.00,0.09
1049.39,0.10
1059.88,0.11
1070.48,0.11
1081.19,0.10
1092.00,0.09
1102.92,0.05
1113.95,0.01
1125.09,-0.04
1136.34,-0.10
1147.70,-0.17
1159.18,-0.25
1170.77,-0.33
1182.48,-0.42
1194.30,-0.52
1206.25,-0.61
1218.31,-0.72
1230.49,-0.82
1242.80,-0.92
1255.22,-1.01
1267.78,-1.09
1280.45,-1.16
1293.26,-1.21
1306.19,-1.26
1319.25,-1.30
1332.45,-1.32
1345.77,-1.34
1359.23,-1.36
1372.82,-1.41
1386.55,-1.48
1400.41,-1.60
1414.42,-1.79
1428.56,-1.99
1442.85,-2.15
1457.28,-2.24
1471.85,-2.26
1486.57,-2.20
1501.43,-2.10
1516.45,-1.97
1531.61,-1.84
1546.93,-1.70
1562.40,-1.56
1578.02,-1.42
1593.80,-1.28
1609.74,-1.15
1625.84,-1.01
1642.10,-0.88
1658.52,-0.75
1675.10,-0.61
1691.85,-0.47
1708.77,-0.32
1725.86,-0.16
1743.12,0.01
1760.55,0.19
1778.15,0.37
1795.94,0.57
1813.90,0.79
1832.03,1.04
1850.36,1.32
1868.86,1.67
1887.55,2.05
1906.42,2.47
1925.49,2.91
1944.74,3.35
1964.19,3.79
1983.83,4.22
2003.67,4.65
2023.71,5.07
2043.94,5.50
2064.38,5.93
2085.03,6.37
2105.88,6.80
2126.94,7.22
2148.20,7.62
2169.69,7.99
2191.38,8.35
2213.30,8.69
2235.43,9.03
2257.78,9.35
2280.36,9.67
2303.17,9.97
2326.20,10.25
2349.46,10.50
2372.95,10.73
2396.68,10.94
2420.65,11.11
2444.86,11.24
2469.31,11.35
2494.00,11.39
2518.94,11.37
2544.13,11.33
2569.57,11.23
2595.27,11.12
2621.22,10.99
2647.43,10.85
2673.90,10.69
2700.64,10.52
2727.65,10.32
2754.93,10.11
2782.48,9.91
2810.30,9.71
2838.40,9.51
2866.79,9.29
2895.46,9.05
2924.41,8.79
2953.65,8.54
2983.19,8.39
3013.02,8.28
3043.15,8.22
3073.58,8.09
3104.32,7.86
3135.36,7.59
3166.72,7.35
3198.38,7.13
3230.37,7.00
3262.67,6.89
3295.30,6.82
3328.25,6.77
3361.53,6.71
3395.15,6.64
3429.10,6.53
3463.39,6.40
3498.03,6.26
3533.01,6.09
3568.34,5.92
3604.02,5.74
3640.06,5.57
3676.46,5.41
3713.22,5.26
3750.36,5.12
3787.86,5.01
3825.74,4.90
3864.00,4.83
3902.64,4.78
3941.66,4.74
3981.08,4.71
4020.89,4.67
4061.10,4.62
4101.71,4.54
4142.73,4.46
4184.15,4.37
4226.00,4.27
4268.26,4.11
4310.94,3.85
4354.05,3.30
4397.59,2.57
4441.56,1.73
4485.98,0.87
4530.84,0.15
4576.15,-0.33
4621.91,-0.69
4668.13,-0.92
4714.81,-1.15
4761.96,-1.41
4809.58,-1.75
4857.67,-2.20
4906.25,-2.84
4955.31,-3.56
5004.87,-4.32
5054.91,-4.84
5105.46,-5.03
5156.52,-4.85
5208.08,-4.31
5260.16,-3.73
5312.77,-3.14
5365.89,-2.62
5419.55,-2.16
5473.75,-1.71
5528.49,-1.20
5583.77,-0.56
5639.61,0.26
5696.00,1.15
5752.96,2.14
5810.49,3.12
5868.60,4.00
5927.28,4.67
5986.56,5.11
6046.42,5.03
6106.89,4.57
6167.96,3.77
6229.64,2.88
6291.93,2.18
6354.85,1.91
6418.40,1.84
6482.58,2.10
6547.41,2.49
6612.88,2.90
6679.01,3.23
6745.80,3.41
6813.26,3.50
6881.39,3.42
6950.21,3.25
7019.71,3.03
7089.91,2.78
7160.81,2.56
7232.41,2.37
7304.74,2.22
7377.79,2.12
7451.56,2.05
7526.08,1.98
7601.34,1.93
7677.35,1.90
7754.13,1.87
7831.67,1.89
7909.98,1.94
7989.08,2.03
8068.98,2.18
8149.67,2.37
8231.16,2.60
8313.47,2.79
8396.61,2.91
8480.57,2.80
8565.38,2.29
8651.03,1.44
8737.54,0.21
8824.92,-1.36
8913.17,-2.91
9002.30,-4.40
9092.32,-5.25
9183.25,-5.61
9275.08,-5.62
9367.83,-5.26
9461.51,-4.67
9556.12,-4.01
9651.68,-3.39
9748.20,-2.91
9845.68,-2.82
9944.14,-3.00
10043.58,-3.49
10144.02,-4.20
10245.46,-5.15
10347.91,-6.11
10451.39,-7.04
10555.91,-7.75
10661.46,-8.25
10768.08,-8.55
10875.76,-8.59
10984.52,-8.46
11094.36,-8.27
11205.31,-8.02
11317.36,-7.78
11430.53,-7.55
11544.84,-7.35
11660.29,-7.17
11776.89,-6.98
11894.66,-6.70
12013.60,-6.40
12133.74,-5.95
12255.08,-5.38
12377.63,-4.78
12501.41,-4.24
12626.42,-3.85
12752.68,-3.55
12880.21,-3.33
13009.01,-3.15
13139.10,-2.98
13270.49,-2.96
13403.20,-3.01
13537.23,-3.38
13672.60,-3.95
13809.33,-4.68
13947.42,-5.35
14086.90,-5.37
14227.77,-4.99
14370.04,-4.48
14513.74,-3.92
14658.88,-4.03
14805.47,-4.35
14953.52,-5.02
15103.06,-5.64
15254.09,-6.21
15406.63,-6.28
15560.70,-6.12
15716.30,-5.62
15873.47,-4.85
16032.20,-4.04
16192.52,-3.33
16354.45,-3.10
16517.99,-3.24
16683.17,-4.31
16850.01,-5.78
17018.51,-7.51
17188.69,-9.12
17360.58,-10.36
17534.18,-11.29
17709.53,-11.77
17886.62,-11.93
18065.49,-11.95
18246.14,-11.91
18428.60,-12.05
18612.89,-12.30
18799.02,-12.65
18987.01,-13.09
19176.88,-13.71
19368.65,-14.55
19562.33,-15.74
19757.96,-17.43
19955.54,-20.29
