frequency,raw
20.00,-6.39
20.20,-6.26
20.40,-6.12
20.61,-5.99
20.81,-5.84
21.02,-5.69
21.23,-5.54
21.44,-5.38
21.66,-5.22
21.87,-5.06
22.09,-4.90
22.31,-4.75
22.54,-4.60
22.76,-4.45
22.99,-4.31
23.22,-4.17
23.45,-4.03
23.69,-3.90
23.92,-3.76
24.16,-3.62
24.40,-3.48
24.65,-3.35
24.89,-3.21
25.14,-3.08
25.39,-2.95
25.65,-2.82
25.91,-2.70
26.16,-2.58
26.43,-2.45
26.69,-2.33
26.96,-2.21
27.23,-2.09
27.50,-1.96
27.77,-1.84
28.05,-1.73
28.33,-1.61
28.62,-1.50
28.90,-1.39
29.19,-1.28
29.48,-1.17
29.78,-1.07
30.08,-0.96
30.38,-0.86
30.68,-0.76
30.99,-0.67
31.30,-0.57
31.61,-0.48
31.93,-0.39
32.24,-0.29
32.57,-0.20
32.89,-0.11
33.22,-0.02
33.55,0.06
33.89,0.14
34.23,0.22
34.57,0.30
34.92,0.37
35.27,0.44
35.62,0.52
35.97,0.59
36.33,0.66
36.70,0.73
37.06,0.81
37.43,0.88
37.81,0.95
38.19,1.03
38.57,1.10
38.95,1.18
39.34,1.26
39.74,1.34
40.14,1.42
40.54,1.50
40.94,1.57
41.35,1.63
41.76,1.69
42.18,1.74
42.60,1.80
43.03,1.85
43.46,1.90
43.90,1.95
44.33,2.00
44.78,2.05
45.23,2.09
45.68,2.12
46.13,2.15
46.60,2.18
47.06,2.20
47.53,2.22
48.01,2.24
48.49,2.25
48.97,2.26
49.46,2.26
49.96,2.26
50.46,2.25
50.96,2.23
51.47,2.21
51.99,2.18
52.51,2.15
53.03,2.13
53.56,2.11
54.10,2.09
54.64,2.07
55.18,2.06
55.74,2.05
56.29,2.06
56.86,2.07
57.42,2.10
58.00,2.14
58.58,2.20
59.16,2.26
59.76,2.34
60.35,2.41
60.96,2.47
61.57,2.53
62.18,2.58
62.80,2.61
63.43,2.63
64.07,2.65
64.71,2.65
65.35,2.64
66.01,2.62
66.67,2.60
67.33,2.58
68.01,2.56
68.69,2.54
69.37,2.53
70.07,2.53
70.77,2.53
71.48,2.54
72.19,2.54
72.91,2.54
73.64,2.53
74.38,2.52
75.12,2.49
75.87,2.45
76.63,2.42
77.40,2.38
78.17,2.36
78.95,2.35
79.74,2.37
80.54,2.41
81.35,2.46
82.16,2.52
82.98,2.58
83.81,2.64
84.65,2.71
85.50,2.77
86.35,2.84
87.22,2.90
88.09,2.97
88.97,3.03
89.86,3.09
90.76,3.14
91.66,3.19
92.58,3.24
93.51,3.28
94.44,3.31
95.39,3.34
96.34,3.37
97.30,3.40
98.28,3.42
99.26,3.44
100.25,3.45
101.25,3.47
102.27,3.47
103.29,3.47
104.32,3.47
105.37,3.46
106.42,3.45
107.48,3.43
108.56,3.42
109.64,3.40
110.74,3.39
111.85,3.37
112.97,3.35
114.10,3.33
115.24,3.30
116.39,3.27
117.55,3.25
118.73,3.23
119.92,3.21
121.12,3.19
122.33,3.20
123.55,3.21
124.79,3.23
126.03,3.26
127.29,3.29
128.57,3.32
129.85,3.36
131.15,3.39
132.46,3.41
133.79,3.44
135.12,3.45
136.48,3.46
137.84,3.47
139.22,3.48
140.61,3.48
142.02,3.49
143.44,3.49
144.87,3.49
146.32,3.49
147.78,3.49
149.26,3.48
150.75,3.47
152.26,3.47
153.78,3.46
155.32,3.46
156.88,3.45
158.44,3.45
160.03,3.45
161.63,3.45
163.24,3.45
164.88,3.44
166.53,3.43
168.19,3.42
169.87,3.40
171.57,3.38
173.29,3.35
175.02,3.32
176.77,3.29
178.54,3.26
180.32,3.22
182.13,3.18
183.95,3.14
185.79,3.10
187.65,3.07
189.52,3.03
191.42,2.99
193.33,2.95
195.27,2.91
197.22,2.86
199.19,2.82
201.18,2.77
203.19,2.72
205.23,2.67
207.28,2.61
209.35,2.55
211.44,2.49
213.56,2.44
215.69,2.38
217.85,2.33
220.03,2.28
222.23,2.23
224.45,2.18
226.70,2.13
228.96,2.08
231.25,2.03
233.57,1.97
235.90,1.92
238.26,1.86
240.64,1.80
243.05,1.74
245.48,1.70
247.93,1.66
250.41,1.62
252.92,1.58
255.45,1.54
258.00,1.50
260.58,1.46
263.19,1.41
265.82,1.37
268.48,1.33
271.16,1.30
273.87,1.27
276.61,1.25
279.38,1.23
282.17,1.21
284.99,1.19
287.84,1.16
290.72,1.14
293.63,1.10
296.57,1.07
299.53,1.04
302.53,1.00
305.55,0.97
308.61,0.95
311.69,0.92
314.81,0.89
317.96,0.86
321.14,0.82
324.35,0.79
327.59,0.76
330.87,0.73
334.18,0.69
337.52,0.67
340.90,0.64
344.30,0.61
347.75,0.58
351.23,0.55
354.74,0.52
358.28,0.48
361.87,0.43
365.49,0.39
369.14,0.33
372.83,0.27
376.56,0.20
380.33,0.13
384.13,0.05
387.97,-0.04
391.85,-0.13
395.77,-0.22
399.73,-0.31
403.72,-0.40
407.76,-0.50
411.84,-0.60
415.96,-0.71
420.12,-0.82
424.32,-0.93
428.56,-1.05
432.85,-1.17
437.18,-1.28
441.55,-1.40
445.96,-1.51
450.42,-1.62
454.93,-1.74
459.48,-1.85
464.07,-1.96
468.71,-2.07
473.40,-2.18
478.13,-2.28
482.91,-2.37
487.74,-2.45
492.62,-2.51
497.55,-2.57
502.52,-2.60
507.55,-2.62
512.62,-2.62
517.75,-2.60
522.93,-2.56
528.16,-2.50
533.44,-2.42
538.77,-2.32
544.16,-2.20
549.60,-2.07
555.10,-1.93
560.65,-1.80
566.25,-1.67
571.92,-1.54
577.64,-1.42
583.41,-1.31
589.25,-1.20
595.14,-1.08
601.09,-0.97
607.10,-0.84
613.17,-0.70
619.30,-0.56
625.50,-0.40
631.75,-0.23
638.07,-0.06
644.45,0.12
650.89,0.30
657.40,0.51
663.98,0.73
670.62,0.97
677.32,1.24
684.10,1.51
690.94,1.78
697.85,2.05
704.83,2.29
711.87,2.50
718.99,2.67
726.18,2.80
733.44,2.89
740.78,2.94
748.19,2.95
755.67,2.92
763.23,2.86
770.86,2.78
778.57,2.69
786.35,2.57
794.22,2.42
802.16,2.25
810.18,2.06
818.28,1.84
826.46,1.62
834.73,1.38
843.08,1.16
851.51,0.94
860.02,0.74
868.62,0.56
877.31,0.39
886.08,0.23
894.94,0.07
903.89,-0.10
912.93,-0.26
922.06,-0.41
931.28,-0.51
940.59,-0.58
950.00,-0.60
959.50,-0.56
969.09,-0.47
978.78,-0.35
988.57,-0.19
998.46,-0.02
1008.44,0.13
1018.53,0.27
1028.71,0.39
1039.00,0.49
1049.39,0.57
1059.88,0.65
1070.48,0.71
1081.19,0.77
1092.00,0.83
1102.92,0.90
1113.95,0.98
1125.09,1.06
1136.34,1.16
1147.70,1.25
1159.18,1.32
1170.77,1.39
1182.48,1.44
1194.30,1.47
1206.25,1.50
1218.31,1.52
1230.49,1.54
1242.80,1.57
1255.22,1.60
1267.78,1.64
1280.45,1.69
1293.26,1.74
1306.19,1.79
1319.25,1.84
1332.45,1.88
1345.77,1.92
1359.23,1.96
1372.82,2.01
1386.55,2.08
1400.41,2.16
1414.42,2.26
1428.56,2.36
1442.85,2.48
1457.28,2.59
1471.85,2.70
1486.57,2.80
1501.43,2.90
1516.45,2.99
1531.61,3.09
1546.93,3.19
1562.40,3.31
1578.02,3.43
1593.80,3.57
1609.74,3.71
1625.84,3.86
1642.10,4.00
1658.52,4.13
1675.10,4.26
1691.85,4.36
1708.77,4.45
1725.86,4.53
1743.12,4.60
1760.55,4.67
1778.15,4.73
1795.94,4.78
1813.90,4.82
1832.03,4.86
1850.36,4.90
1868.86,4.94
1887.55,4.98
1906.42,5.01
1925.49,5.04
1944.74,5.07
1964.19,5.10
1983.83,5.14
2003.67,5.18
2023.71,5.23
2043.94,5.28
2064.38,5.33
2085.03,5.38
2105.88,5.44
2126.94,5.49
2148.20,5.55
2169.69,5.61
2191.38,5.69
2213.30,5.80
2235.43,5.92
2257.78,6.06
2280.36,6.21
2303.17,6.35
2326.20,6.48
2349.46,6.59
2372.95,6.68
2396.68,6.76
2420.65,6.83
2444.86,6.91
2469.31,6.99
2494.00,7.01
2518.94,6.94
2544.13,6.81
2569.57,6.56
2595.27,6.27
2621.22,5.96
2647.43,5.66
2673.90,5.40
2700.64,5.16
2727.65,4.98
2754.93,4.86
2782.48,4.86
2810.30,4.98
2838.40,5.24
2866.79,5.59
2895.46,5.99
2924.41,6.30
2953.65,6.57
2983.19,6.63
3013.02,6.59
3043.15,6.41
3073.58,6.14
3104.32,5.84
3135.36,5.54
3166.72,5.21
3198.38,4.88
3230.37,4.44
3262.67,3.97
3295.30,3.42
3328.25,2.85
3361.53,2.27
3395.15,1.71
3429.10,1.17
3463.39,0.66
3498.03,0.17
3533.01,-0.32
3568.34,-0.80
3604.02,-1.29
3640.06,-1.77
3676.46,-2.26
3713.22,-2.75
3750.36,-3.26
3787.86,-3.84
3825.74,-4.44
3864.00,-5.12
3902.64,-5.91
3941.66,-6.73
3981.08,-7.56
4020.89,-8.24
4061.10,-8.74
4101.71,-8.84
4142.73,-8.92
4184.15,-9.00
4226.00,-9.21
4268.26,-9.43
4310.94,-9.67
4354.05,-9.77
4397.59,-9.73
4441.56,-9.59
4485.98,-9.28
4530.84,-8.89
4576.15,-8.41
4621.91,-7.90
4668.13,-7.24
4714.81,-6.43
4761.96,-5.58
4809.58,-4.74
4857.67,-4.05
4906.25,-3.48
4955.31,-2.90
5004.87,-2.28
5054.91,-1.60
5105.46,-0.93
5156.52,-0.28
5208.08,0.32
5260.16,0.80
5312.77,1.23
5365.89,1.59
5419.55,2.03
5473.75,2.54
5528.49,3.11
5583.77,3.63
5639.61,4.01
5696.00,4.33
5752.96,4.52
5810.49,4.69
5868.60,4.83
5927.28,4.98
5986.56,5.16
6046.42,5.34
6106.89,5.50
6167.96,5.60
6229.64,5.63
6291.93,5.54
6354.85,5.22
6418.40,4.75
6482.58,4.02
6547.41,3.13
6612.88,2.19
6679.01,1.29
6745.80,0.51
6813.26,-0.18
6881.39,-0.74
6950.21,-1.06
7019.71,-1.21
7089.91,-1.14
7160.81,-1.10
7232.41,-1.11
7304.74,-1.18
7377.79,-1.08
7451.56,-0.70
7526.08,-0.07
7601.34,0.79
7677.35,2.06
7754.13,3.49
7831.67,5.34
7909.98,7.13
7989.08,8.81
8068.98,10.03
8149.67,10.97
8231.16,11.54
8313.47,11.77
8396.61,11.83
8480.57,11.60
8565.38,11.06
8651.03,10.23
8737.54,9.06
8824.92,7.47
8913.17,5.60
9002.30,3.63
9092.32,1.69
9183.25,-0.01
9275.08,-1.49
9367.83,-2.61
9461.51,-3.04
9556.12,-2.68
9651.68,-1.73
9748.20,-0.51
9845.68,0.21
9944.14,0.49
10043.58,0.30
10144.02,-0.22
10245.46,-1.04
10347.91,-1.94
10451.39,-2.87
10555.91,-3.76
10661.46,-4.53
10768.08,-5.14
10875.76,-5.36
10984.52,-5.24
11094.36,-5.01
11205.31,-4.75
11317.36,-4.56
11430.53,-4.39
11544.84,-4.27
11660.29,-4.19
11776.89,-4.11
11894.66,-4.02
12013.60,-3.94
12133.74,-3.88
12255.08,-3.93
12377.63,-4.10
12501.41,-4.49
12626.42,-5.17
12752.68,-5.91
12880.21,-6.50
13009.01,-7.00
13139.10,-7.49
13270.49,-7.56
13403.20,-7.49
13537.23,-7.04
13672.60,-6.51
13809.33,-5.90
13947.42,-5.44
14086.90,-5.41
14227.77,-5.65
14370.04,-6.24
14513.74,-7.23
14658.88,-8.27
14805.47,-9.05
14953.52,-9.40
15103.06,-9.31
15254.09,-9.03
15406.63,-8.57
15560.70,-8.00
15716.30,-7.26
15873.47,-6.07
16032.20,-4.75
16192.52,-3.44
16354.45,-2.81
16517.99,-2.71
16683.17,-3.91
16850.01,-5.57
17018.51,-7.50
17188.69,-9.16
17360.58,-10.16
17534.18,-10.55
17709.53,-9.94
17886.62,-8.89
18065.49,-7.84
18246.14,-7.01
18428.60,-6.86
18612.89,-7.06
18799.02,-7.57
18987.01,-8.36
19176.88,-9.48
19368.65,-10.83
19562.33,-12.38
19757.96,-14.09
19955.54,-15.80
