frequency,raw
20.00,0.64
20.20,0.75
20.40,0.86
20.61,0.97
20.81,1.07
21.02,1.18
21.23,1.29
21.44,1.39
21.66,1.50
21.87,1.60
22.09,1.70
22.31,1.80
22.54,1.90
22.76,2.00
22.99,2.09
23.22,2.19
23.45,2.28
23.69,2.37
23.92,2.45
24.16,2.54
24.40,2.63
24.65,2.71
24.89,2.80
25.14,2.89
25.39,2.98
25.65,3.07
25.91,3.16
26.16,3.25
26.43,3.34
26.69,3.43
26.96,3.51
27.23,3.59
27.50,3.67
27.77,3.74
28.05,3.81
28.33,3.88
28.62,3.95
28.90,4.01
29.19,4.07
29.48,4.13
29.78,4.19
30.08,4.24
30.38,4.29
30.68,4.35
30.99,4.40
31.30,4.45
31.61,4.51
31.93,4.57
32.24,4.64
32.57,4.70
32.89,4.77
33.22,4.84
33.55,4.91
33.89,4.97
34.23,5.03
34.57,5.10
34.92,5.16
35.27,5.22
35.62,5.28
35.97,5.34
36.33,5.40
36.70,5.46
37.06,5.51
37.43,5.57
37.81,5.62
38.19,5.67
38.57,5.71
38.95,5.76
39.34,5.80
39.74,5.83
40.14,5.87
40.54,5.90
40.94,5.93
41.35,5.96
41.76,5.98
42.18,6.00
42.60,6.02
43.03,6.04
43.46,6.05
43.90,6.07
44.33,6.08
44.78,6.08
45.23,6.09
45.68,6.10
46.13,6.10
46.60,6.11
47.06,6.11
47.53,6.11
48.01,6.12
48.49,6.12
48.97,6.12
49.46,6.11
49.96,6.10
50.46,6.09
50.96,6.07
51.47,6.06
51.99,6.03
52.51,6.00
53.03,5.96
53.56,5.92
54.10,5.88
54.64,5.83
55.18,5.79
55.74,5.75
56.29,5.71
56.86,5.67
57.42,5.63
58.00,5.60
58.58,5.55
59.16,5.51
59.76,5.45
60.35,5.39
60.96,5.32
61.57,5.25
62.18,5.18
62.80,5.11
63.43,5.05
64.07,4.99
64.71,4.94
65.35,4.89
66.01,4.84
66.67,4.78
67.33,4.71
68.01,4.63
68.69,4.54
69.37,4.46
70.07,4.39
70.77,4.32
71.48,4.25
72.19,4.19
72.91,4.14
73.64,4.12
74.38,4.09
75.12,4.06
75.87,4.03
76.63,3.99
77.40,3.97
78.17,3.95
78.95,3.94
79.74,3.95
80.54,3.95
81.35,3.96
82.16,3.95
82.98,3.93
83.81,3.89
84.65,3.84
85.50,3.77
86.35,3.68
87.22,3.57
88.09,3.44
88.97,3.29
89.86,3.12
90.76,2.93
91.66,2.73
92.58,2.53
93.51,2.33
94.44,2.14
95.39,1.95
96.34,1.78
97.30,1.62
98.28,1.47
99.26,1.33
100.25,1.20
101.25,1.10
102.27,1.03
103.29,0.98
104.32,0.96
105.37,0.97
106.42,0.99
107.48,1.03
108.56,1.08
109.64,1.13
110.74,1.17
111.85,1.21
112.97,1.25
114.10,1.29
115.24,1.33
116.39,1.37
117.55,1.41
118.73,1.42
119.92,1.41
121.12,1.41
122.33,1.38
123.55,1.35
124.79,1.31
126.03,1.25
127.29,1.18
128.57,1.10
129.85,1.00
131.15,0.90
132.46,0.79
133.79,0.67
135.12,0.57
136.48,0.48
137.84,0.43
139.22,0.42
140.61,0.41
142.02,0.41
143.44,0.40
144.87,0.36
146.32,0.29
147.78,0.20
149.26,0.08
150.75,-0.06
152.26,-0.23
153.78,-0.42
155.32,-0.63
156.88,-0.85
158.44,-1.09
160.03,-1.33
161.63,-1.58
163.24,-1.83
164.88,-2.10
166.53,-2.37
168.19,-2.64
169.87,-2.92
171.57,-3.21
173.29,-3.50
175.02,-3.79
176.77,-4.08
178.54,-4.37
180.32,-4.67
182.13,-4.97
183.95,-5.27
185.79,-5.56
187.65,-5.86
189.52,-6.15
191.42,-6.45
193.33,-6.74
195.27,-7.02
197.22,-7.31
199.19,-7.59
201.18,-7.86
203.19,-8.12
205.23,-8.37
207.28,-8.60
209.35,-8.82
211.44,-9.01
213.56,-9.20
215.69,-9.37
217.85,-9.54
220.03,-9.70
222.23,-9.86
224.45,-10.02
226.70,-10.17
228.96,-10.32
231.25,-10.46
233.57,-10.59
235.90,-10.71
238.26,-10.80
240.64,-10.89
243.05,-10.96
245.48,-11.00
247.93,-11.04
250.41,-11.06
252.92,-11.06
255.45,-11.06
258.00,-11.05
260.58,-11.03
263.19,-11.00
265.82,-10.96
268.48,-10.91
271.16,-10.86
273.87,-10.78
276.61,-10.69
279.38,-10.59
282.17,-10.45
284.99,-10.31
287.84,-10.16
290.72,-10.03
293.63,-9.92
296.57,-9.87
299.53,-9.86
302.53,-9.92
305.55,-9.99
308.61,-10.03
311.69,-10.04
314.81,-10.04
317.96,-10.00
321.14,-9.93
324.35,-9.79
327.59,-9.71
330.87,-9.66
334.18,-9.65
337.52,-9.66
340.90,-9.67
344.30,-9.68
347.75,-9.68
351.23,-9.68
354.74,-9.67
358.28,-9.65
361.87,-9.63
365.49,-9.60
369.14,-9.57
372.83,-9.53
376.56,-9.49
380.33,-9.44
384.13,-9.38
387.97,-9.32
391.85,-9.26
395.77,-9.19
399.73,-9.12
403.72,-9.04
407.76,-8.96
411.84,-8.87
415.96,-8.78
420.12,-8.68
424.32,-8.58
428.56,-8.48
432.85,-8.38
437.18,-8.28
441.55,-8.17
445.96,-8.07
450.42,-7.96
454.93,-7.85
459.48,-7.74
464.07,-7.63
468.71,-7.52
473.40,-7.41
478.13,-7.29
482.91,-7.17
487.74,-7.04
492.62,-6.92
497.55,-6.79
502.52,-6.67
507.55,-6.54
512.62,-6.42
517.75,-6.29
522.93,-6.16
528.16,-6.02
533.44,-5.88
538.77,-5.74
544.16,-5.60
549.60,-5.45
555.10,-5.30
560.65,-5.15
566.25,-5.00
571.92,-4.85
577.64,-4.71
583.41,-4.56
589.25,-4.42
595.14,-4.28
601.09,-4.13
607.10,-4.00
613.17,-3.86
619.30,-3.73
625.50,-3.60
631.75,-3.47
638.07,-3.35
644.45,-3.23
650.89,-3.12
657.40,-3.02
663.98,-2.92
670.62,-2.82
677.32,-2.73
684.10,-2.63
690.94,-2.53
697.85,-2.43
704.83,-2.34
711.87,-2.25
718.99,-2.17
726.18,-2.09
733.44,-2.02
740.78,-1.94
748.19,-1.88
755.67,-1.81
763.23,-1.74
770.86,-1.67
778.57,-1.60
786.35,-1.53
794.22,-1.46
802.16,-1.39
810.18,-1.32
818.28,-1.24
826.46,-1.16
834.73,-1.08
843.08,-1.00
851.51,-0.91
860.02,-0.82
868.62,-0.73
877.31,-0.64
886.08,-0.56
894.94,-0.49
903.89,-0.41
912.93,-0.34
922.06,-0.28
931.28,-0.23
940.59,-0.19
950.00,-0.16
959.50,-0.13
969.09,-0.10
978.78,-0.07
988.57,-0.04
998.46,-0.01
1008.44,0.03
1018.53,0.07
1028.71,0.11
1039.00,0.15
1049.39,0.20
1059.88,0.25
1070.48,0.30
1081.19,0.35
1092.00,0.41
1102.92,0.47
1113.95,0.53
1125.09,0.60
1136.34,0.66
1147.70,0.73
1159.18,0.81
1170.77,0.88
1182.48,0.97
1194.30,1.06
1206.25,1.15
1218.31,1.24
1230.49,1.33
1242.80,1.42
1255.22,1.50
1267.78,1.57
1280.45,1.64
1293.26,1.69
1306.19,1.75
1319.25,1.79
1332.45,1.82
1345.77,1.84
1359.23,1.85
1372.82,1.84
1386.55,1.83
1400.41,1.82
1414.42,1.80
1428.56,1.78
1442.85,1.76
1457.28,1.73
1471.85,1.71
1486.57,1.67
1501.43,1.64
1516.45,1.59
1531.61,1.54
1546.93,1.47
1562.40,1.39
1578.02,1.29
1593.80,1.16
1609.74,1.00
1625.84,0.82
1642.10,0.60
1658.52,0.37
1675.10,0.13
1691.85,-0.12
1708.77,-0.38
1725.86,-0.63
1743.12,-0.88
1760.55,-1.12
1778.15,-1.36
1795.94,-1.57
1813.90,-1.70
1832.03,-1.74
1850.36,-1.68
1868.86,-1.45
1887.55,-1.10
1906.42,-0.66
1925.49,-0.13
1944.74,0.48
1964.19,1.14
1983.83,1.84
2003.67,2.57
2023.71,3.30
2043.94,4.05
2064.38,4.79
2085.03,5.52
2105.88,6.24
2126.94,6.94
2148.20,7.60
2169.69,8.25
2191.38,8.89
2213.30,9.51
2235.43,10.11
2257.78,10.68
2280.36,11.21
2303.17,11.72
2326.20,12.17
2349.46,12.58
2372.95,12.92
2396.68,13.23
2420.65,13.46
2444.86,13.62
2469.31,13.75
2494.00,13.82
2518.94,13.87
2544.13,13.91
2569.57,13.97
2595.27,14.00
2621.22,14.00
2647.43,13.90
2673.90,13.74
2700.64,13.56
2727.65,13.34
2754.93,13.11
2782.48,12.88
2810.30,12.63
2838.40,12.38
2866.79,12.13
2895.46,11.87
2924.41,11.62
2953.65,11.37
2983.19,11.14
3013.02,10.92
3043.15,10.71
3073.58,10.50
3104.32,10.29
3135.36,10.07
3166.72,9.85
3198.38,9.63
3230.37,9.40
3262.67,9.15
3295.30,8.90
3328.25,8.61
3361.53,8.30
3395.15,7.98
3429.10,7.63
3463.39,7.27
3498.03,6.91
3533.01,6.55
3568.34,6.18
3604.02,5.82
3640.06,5.47
3676.46,5.13
3713.22,4.80
3750.36,4.49
3787.86,4.19
3825.74,3.89
3864.00,3.60
3902.64,3.31
3941.66,3.03
3981.08,2.74
4020.89,2.46
4061.10,2.18
4101.71,1.94
4142.73,1.71
4184.15,1.49
4226.00,1.30
4268.26,1.12
4310.94,0.97
4354.05,0.88
4397.59,0.85
4441.56,0.85
4485.98,0.93
4530.84,1.05
4576.15,1.20
4621.91,1.37
4668.13,1.55
4714.81,1.72
4761.96,1.89
4809.58,2.04
4857.67,2.17
4906.25,2.28
4955.31,2.37
5004.87,2.45
5054.91,2.51
5105.46,2.57
5156.52,2.64
5208.08,2.72
5260.16,2.83
5312.77,2.96
5365.89,3.13
5419.55,3.34
5473.75,3.57
5528.49,3.82
5583.77,4.09
5639.61,4.35
5696.00,4.60
5752.96,4.79
5810.49,4.95
5868.60,5.04
5927.28,5.09
5986.56,5.10
6046.42,5.08
6106.89,5.04
6167.96,4.99
6229.64,4.91
6291.93,4.79
6354.85,4.59
6418.40,4.32
6482.58,3.92
6547.41,3.36
6612.88,2.72
6679.01,1.95
6745.80,1.17
6813.26,0.40
6881.39,-0.28
6950.21,-0.86
7019.71,-1.38
7089.91,-1.83
7160.81,-2.19
7232.41,-2.49
7304.74,-2.70
7377.79,-2.76
7451.56,-2.69
7526.08,-2.49
7601.34,-2.14
7677.35,-1.62
7754.13,-1.04
7831.67,-0.30
7909.98,0.47
7989.08,1.28
8068.98,2.00
8149.67,2.58
8231.16,2.94
8313.47,2.77
8396.61,2.31
8480.57,1.26
8565.38,-0.08
8651.03,-1.44
8737.54,-2.72
8824.92,-3.66
8913.17,-4.32
9002.30,-4.87
9092.32,-5.26
9183.25,-5.53
9275.08,-5.69
9367.83,-5.67
9461.51,-5.49
9556.12,-5.21
9651.68,-4.84
9748.20,-4.43
9845.68,-4.02
9944.14,-3.66
10043.58,-3.40
10144.02,-3.21
10245.46,-3.14
10347.91,-3.09
10451.39,-3.07
10555.91,-3.10
10661.46,-3.24
10768.08,-3.49
10875.76,-3.93
10984.52,-4.44
11094.36,-4.96
11205.31,-5.39
11317.36,-5.47
11430.53,-5.35
11544.84,-4.92
11660.29,-4.41
11776.89,-4.05
11894.66,-4.25
12013.60,-4.55
12133.74,-5.01
12255.08,-5.46
12377.63,-5.76
12501.41,-5.81
12626.42,-5.60
12752.68,-5.32
12880.21,-5.17
13009.01,-5.10
13139.10,-5.03
13270.49,-5.23
13403.20,-5.48
13537.23,-5.78
13672.60,-6.16
13809.33,-6.60
13947.42,-6.97
14086.90,-6.96
14227.77,-6.72
14370.04,-6.58
14513.74,-6.60
14658.88,-7.24
14805.47,-7.97
14953.52,-8.84
15103.06,-9.50
15254.09,-10.05
15406.63,-10.06
15560.70,-9.87
15716.30,-9.40
15873.47,-8.73
16032.20,-8.02
16192.52,-7.39
16354.45,-7.22
16517.99,-7.44
16683.17,-8.69
16850.01,-10.43
17018.51,-12.52
17188.69,-14.68
17360.58,-16.55
17534.18,-18.02
17709.53,-18.59
17886.62,-18.20
18065.49,-17.52
18246.14,-16.81
18428.60,-16.70
18612.89,-16.73
18799.02,-16.77
18987.01,-16.60
19176.88,-16.41
19368.65,-16.53
19562.33,-17.07
19757.96,-18.12
19955.54,-19.71
