frequency,raw
20.00,-5.27
20.20,-5.17
20.40,-5.07
20.61,-4.97
20.81,-4.87
21.02,-4.77
21.23,-4.67
21.44,-4.57
21.66,-4.47
21.87,-4.37
22.09,-4.27
22.31,-4.18
22.54,-4.08
22.76,-3.98
22.99,-3.89
23.22,-3.79
23.45,-3.70
23.69,-3.60
23.92,-3.50
24.16,-3.40
24.40,-3.31
24.65,-3.21
24.89,-3.11
25.14,-3.02
25.39,-2.93
25.65,-2.83
25.91,-2.74
26.16,-2.65
26.43,-2.57
26.69,-2.48
26.96,-2.40
27.23,-2.32
27.50,-2.25
27.77,-2.17
28.05,-2.09
28.33,-2.02
28.62,-1.94
28.90,-1.87
29.19,-1.80
29.48,-1.73
29.78,-1.66
30.08,-1.59
30.38,-1.52
30.68,-1.45
30.99,-1.38
31.30,-1.32
31.61,-1.25
31.93,-1.18
32.24,-1.12
32.57,-1.06
32.89,-1.00
33.22,-0.94
33.55,-0.88
33.89,-0.82
34.23,-0.76
34.57,-0.70
34.92,-0.64
35.27,-0.59
35.62,-0.53
35.97,-0.48
36.33,-0.42
36.70,-0.37
37.06,-0.32
37.43,-0.27
37.81,-0.23
38.19,-0.18
38.57,-0.14
38.95,-0.10
39.34,-0.06
39.74,-0.02
40.14,0.02
40.54,0.06
40.94,0.09
41.35,0.13
41.76,0.17
42.18,0.20
42.60,0.23
43.03,0.27
43.46,0.30
43.90,0.33
44.33,0.36
44.78,0.39
45.23,0.42
45.68,0.45
46.13,0.48
46.60,0.51
47.06,0.53
47.53,0.55
48.01,0.58
48.49,0.60
48.97,0.62
49.46,0.64
49.96,0.66
50.46,0.68
50.96,0.69
51.47,0.71
51.99,0.72
52.51,0.73
53.03,0.75
53.56,0.76
54.10,0.77
54.64,0.79
55.18,0.80
55.74,0.81
56.29,0.81
56.86,0.82
57.42,0.82
58.00,0.83
58.58,0.83
59.16,0.83
59.76,0.84
60.35,0.84
60.96,0.85
61.57,0.85
62.18,0.86
62.80,0.86
63.43,0.87
64.07,0.87
64.71,0.88
65.35,0.89
66.01,0.90
66.67,0.91
67.33,0.92
68.01,0.92
68.69,0.93
69.37,0.93
70.07,0.93
70.77,0.93
71.48,0.93
72.19,0.93
72.91,0.93
73.64,0.93
74.38,0.94
75.12,0.94
75.87,0.94
76.63,0.94
77.40,0.94
78.17,0.93
78.95,0.92
79.74,0.91
80.54,0.90
81.35,0.89
82.16,0.88
82.98,0.87
83.81,0.85
84.65,0.83
85.50,0.82
86.35,0.80
87.22,0.78
88.09,0.77
88.97,0.75
89.86,0.73
90.76,0.71
91.66,0.69
92.58,0.68
93.51,0.67
94.44,0.66
95.39,0.64
96.34,0.62
97.30,0.59
98.28,0.57
99.26,0.56
100.25,0.54
101.25,0.52
102.27,0.51
103.29,0.50
104.32,0.48
105.37,0.46
106.42,0.45
107.48,0.43
108.56,0.42
109.64,0.40
110.74,0.38
111.85,0.37
112.97,0.35
114.10,0.33
115.24,0.30
116.39,0.28
117.55,0.26
118.73,0.24
119.92,0.23
121.12,0.21
122.33,0.19
123.55,0.18
124.79,0.17
126.03,0.15
127.29,0.14
128.57,0.14
129.85,0.13
131.15,0.13
132.46,0.12
133.79,0.12
135.12,0.12
136.48,0.12
137.84,0.12
139.22,0.11
140.61,0.11
142.02,0.10
143.44,0.09
144.87,0.08
146.32,0.06
147.78,0.03
149.26,0.01
150.75,-0.02
152.26,-0.04
153.78,-0.06
155.32,-0.08
156.88,-0.09
158.44,-0.10
160.03,-0.10
161.63,-0.11
163.24,-0.11
164.88,-0.11
166.53,-0.11
168.19,-0.11
169.87,-0.12
171.57,-0.12
173.29,-0.13
175.02,-0.13
176.77,-0.14
178.54,-0.15
180.32,-0.16
182.13,-0.17
183.95,-0.18
185.79,-0.19
187.65,-0.19
189.52,-0.20
191.42,-0.20
193.33,-0.20
195.27,-0.20
197.22,-0.19
199.19,-0.19
201.18,-0.18
203.19,-0.18
205.23,-0.18
207.28,-0.18
209.35,-0.18
211.44,-0.18
213.56,-0.18
215.69,-0.18
217.85,-0.18
220.03,-0.18
222.23,-0.18
224.45,-0.19
226.70,-0.19
228.96,-0.19
231.25,-0.20
233.57,-0.20
235.90,-0.20
238.26,-0.21
240.64,-0.22
243.05,-0.22
245.48,-0.23
247.93,-0.23
250.41,-0.24
252.92,-0.24
255.45,-0.25
258.00,-0.25
260.58,-0.26
263.19,-0.26
265.82,-0.27
268.48,-0.27
271.16,-0.27
273.87,-0.27
276.61,-0.27
279.38,-0.27
282.17,-0.27
284.99,-0.27
287.84,-0.27
290.72,-0.27
293.63,-0.28
296.57,-0.28
299.53,-0.28
302.53,-0.28
305.55,-0.28
308.61,-0.29
311.69,-0.29
314.81,-0.29
317.96,-0.29
321.14,-0.29
324.35,-0.29
327.59,-0.29
330.87,-0.29
334.18,-0.29
337.52,-0.28
340.90,-0.27
344.30,-0.26
347.75,-0.25
351.23,-0.24
354.74,-0.23
358.28,-0.23
361.87,-0.22
365.49,-0.21
369.14,-0.20
372.83,-0.19
376.56,-0.18
380.33,-0.18
384.13,-0.17
387.97,-0.18
391.85,-0.18
395.77,-0.19
399.73,-0.20
403.72,-0.20
407.76,-0.20
411.84,-0.19
415.96,-0.18
420.12,-0.16
424.32,-0.14
428.56,-0.13
432.85,-0.11
437.18,-0.09
441.55,-0.07
445.96,-0.06
450.42,-0.05
454.93,-0.03
459.48,-0.02
464.07,-0.01
468.71,0.01
473.40,0.01
478.13,0.02
482.91,0.03
487.74,0.03
492.62,0.03
497.55,0.04
502.52,0.05
507.55,0.05
512.62,0.06
517.75,0.06
522.93,0.06
528.16,0.05
533.44,0.03
538.77,0.01
544.16,-0.03
549.60,-0.08
555.10,-0.12
560.65,-0.15
566.25,-0.15
571.92,-0.14
577.64,-0.12
583.41,-0.10
589.25,-0.08
595.14,-0.07
601.09,-0.08
607.10,-0.11
613.17,-0.16
619.30,-0.24
625.50,-0.34
631.75,-0.44
638.07,-0.55
644.45,-0.61
650.89,-0.65
657.40,-0.63
663.98,-0.58
670.62,-0.51
677.32,-0.44
684.10,-0.37
690.94,-0.31
697.85,-0.26
704.83,-0.21
711.87,-0.17
718.99,-0.12
726.18,-0.09
733.44,-0.05
740.78,-0.02
748.19,0.01
755.67,0.03
763.23,0.05
770.86,0.07
778.57,0.09
786.35,0.11
794.22,0.12
802.16,0.14
810.18,0.14
818.28,0.14
826.46,0.14
834.73,0.14
843.08,0.14
851.51,0.12
860.02,0.11
868.62,0.09
877.31,0.07
886.08,0.06
894.94,0.05
903.89,0.03
912.93,0.01
922.06,-0.01
931.28,-0.03
940.59,-0.05
950.00,-0.05
959.50,-0.04
969.09,-0.03
978.78,-0.02
988.57,-0.00
998.46,0.00
1008.44,-0.01
1018.53,-0.02
1028.71,-0.04
1039.00,-0.07
1049.39,-0.10
1059.88,-0.13
1070.48,-0.17
1081.19,-0.23
1092.00,-0.29
1102.92,-0.34
1113.95,-0.37
1125.09,-0.37
1136.34,-0.34
1147.70,-0.31
1159.18,-0.27
1170.77,-0.22
1182.48,-0.17
1194.30,-0.11
1206.25,-0.05
1218.31,0.00
1230.49,0.05
1242.80,0.09
1255.22,0.13
1267.78,0.16
1280.45,0.19
1293.26,0.22
1306.19,0.24
1319.25,0.26
1332.45,0.25
1345.77,0.25
1359.23,0.24
1372.82,0.25
1386.55,0.26
1400.41,0.29
1414.42,0.31
1428.56,0.33
1442.85,0.37
1457.28,0.44
1471.85,0.51
1486.57,0.57
1501.43,0.64
1516.45,0.65
1531.61,0.64
1546.93,0.61
1562.40,0.58
1578.02,0.55
1593.80,0.52
1609.74,0.49
1625.84,0.48
1642.10,0.49
1658.52,0.50
1675.10,0.50
1691.85,0.50
1708.77,0.51
1725.86,0.52
1743.12,0.57
1760.55,0.66
1778.15,0.76
1795.94,0.88
1813.90,0.97
1832.03,1.05
1850.36,1.11
1868.86,1.16
1887.55,1.22
1906.42,1.29
1925.49,1.40
1944.74,1.55
1964.19,1.72
1983.83,1.91
2003.67,2.11
2023.71,2.31
2043.94,2.48
2064.38,2.64
2085.03,2.79
2105.88,2.92
2126.94,3.04
2148.20,3.13
2169.69,3.21
2191.38,3.29
2213.30,3.40
2235.43,3.53
2257.78,3.71
2280.36,3.94
2303.17,4.19
2326.20,4.45
2349.46,4.67
2372.95,4.88
2396.68,5.07
2420.65,5.28
2444.86,5.49
2469.31,5.72
2494.00,5.96
2518.94,6.19
2544.13,6.42
2569.57,6.63
2595.27,6.82
2621.22,7.01
2647.43,7.15
2673.90,7.24
2700.64,7.30
2727.65,7.35
2754.93,7.38
2782.48,7.36
2810.30,7.32
2838.40,7.23
2866.79,7.13
2895.46,7.02
2924.41,6.94
2953.65,6.86
2983.19,6.80
3013.02,6.75
3043.15,6.71
3073.58,6.69
3104.32,6.70
3135.36,6.73
3166.72,6.77
3198.38,6.82
3230.37,6.88
3262.67,6.95
3295.30,7.00
3328.25,7.03
3361.53,7.04
3395.15,7.02
3429.10,6.99
3463.39,6.95
3498.03,6.91
3533.01,6.89
3568.34,6.89
3604.02,6.92
3640.06,6.96
3676.46,7.01
3713.22,7.08
3750.36,7.17
3787.86,7.30
3825.74,7.43
3864.00,7.57
3902.64,7.73
3941.66,7.89
3981.08,8.03
4020.89,8.13
4061.10,8.22
4101.71,8.23
4142.73,8.22
4184.15,8.17
4226.00,8.09
4268.26,8.00
4310.94,7.89
4354.05,7.74
4397.59,7.57
4441.56,7.38
4485.98,7.17
4530.84,6.95
4576.15,6.70
4621.91,6.45
4668.13,6.19
4714.81,5.92
4761.96,5.65
4809.58,5.37
4857.67,5.11
4906.25,4.87
4955.31,4.65
5004.87,4.45
5054.91,4.27
5105.46,4.11
5156.52,3.95
5208.08,3.81
5260.16,3.69
5312.77,3.58
5365.89,3.49
5419.55,3.42
5473.75,3.38
5528.49,3.36
5583.77,3.37
5639.61,3.41
5696.00,3.47
5752.96,3.55
5810.49,3.63
5868.60,3.69
5927.28,3.74
5986.56,3.77
6046.42,3.77
6106.89,3.74
6167.96,3.71
6229.64,3.69
6291.93,3.72
6354.85,3.83
6418.40,3.98
6482.58,4.18
6547.41,4.34
6612.88,4.46
6679.01,4.48
6745.80,4.41
6813.26,4.30
6881.39,4.13
6950.21,3.93
7019.71,3.72
7089.91,3.50
7160.81,3.27
7232.41,3.06
7304.74,2.88
7377.79,2.77
7451.56,2.71
7526.08,2.69
7601.34,2.70
7677.35,2.72
7754.13,2.75
7831.67,2.74
7909.98,2.73
7989.08,2.71
8068.98,2.72
8149.67,2.74
8231.16,2.76
8313.47,2.69
8396.61,2.51
8480.57,2.06
8565.38,1.24
8651.03,0.12
8737.54,-1.33
8824.92,-3.02
8913.17,-4.63
9002.30,-6.16
9092.32,-6.93
9183.25,-7.18
9275.08,-7.08
9367.83,-6.64
9461.51,-6.07
9556.12,-5.49
9651.68,-4.98
9748.20,-4.57
9845.68,-4.33
9944.14,-4.22
10043.58,-4.25
10144.02,-4.37
10245.46,-4.63
10347.91,-4.95
10451.39,-5.34
10555.91,-5.82
10661.46,-6.36
10768.08,-6.95
10875.76,-7.52
10984.52,-7.95
11094.36,-8.25
11205.31,-8.35
11317.36,-8.14
11430.53,-7.79
11544.84,-7.21
11660.29,-6.54
11776.89,-5.91
11894.66,-5.62
12013.60,-5.40
12133.74,-5.56
12255.08,-6.11
12377.63,-6.88
12501.41,-7.73
12626.42,-8.62
12752.68,-9.47
12880.21,-10.22
13009.01,-10.93
13139.10,-11.64
13270.49,-12.17
13403.20,-12.63
13537.23,-12.77
13672.60,-12.51
13809.33,-11.85
13947.42,-10.51
14086.90,-9.20
14227.77,-7.91
14370.04,-6.94
14513.74,-6.36
14658.88,-6.28
14805.47,-6.30
14953.52,-6.46
15103.06,-6.51
15254.09,-6.50
15406.63,-6.13
15560.70,-5.61
15716.30,-4.84
15873.47,-3.88
16032.20,-2.91
16192.52,-2.09
16354.45,-1.77
16517.99,-1.81
16683.17,-2.71
16850.01,-3.93
17018.51,-5.34
17188.69,-6.50
17360.58,-7.09
17534.18,-7.20
17709.53,-6.61
17886.62,-5.70
18065.49,-4.71
18246.14,-3.77
18428.60,-3.23
18612.89,-3.04
18799.02,-3.22
18987.01,-3.82
19176.88,-4.87
19368.65,-6.13
19562.33,-7.59
19757.96,-9.19
19955.54,-10.97
