frequency,raw
20.00,-2.77
20.20,-2.70
20.40,-2.62
20.61,-2.53
20.81,-2.43
21.02,-2.35
21.23,-2.29
21.44,-2.24
21.66,-2.19
21.87,-2.16
22.09,-2.12
22.31,-2.09
22.54,-2.06
22.76,-2.03
22.99,-2.01
23.22,-2.00
23.45,-2.00
23.69,-2.01
23.92,-2.02
24.16,-2.03
24.40,-2.05
24.65,-2.07
24.89,-2.08
25.14,-2.09
25.39,-2.09
25.65,-2.09
25.91,-2.09
26.16,-2.08
26.43,-2.06
26.69,-2.03
26.96,-1.98
27.23,-1.93
27.50,-1.86
27.77,-1.79
28.05,-1.73
28.33,-1.67
28.62,-1.61
28.90,-1.55
29.19,-1.50
29.48,-1.44
29.78,-1.39
30.08,-1.34
30.38,-1.29
30.68,-1.25
30.99,-1.22
31.30,-1.20
31.61,-1.19
31.93,-1.19
32.24,-1.19
32.57,-1.21
32.89,-1.22
33.22,-1.23
33.55,-1.23
33.89,-1.24
34.23,-1.23
34.57,-1.23
34.92,-1.22
35.27,-1.20
35.62,-1.17
35.97,-1.14
36.33,-1.09
36.70,-1.05
37.06,-1.01
37.43,-0.97
37.81,-0.94
38.19,-0.91
38.57,-0.88
38.95,-0.86
39.34,-0.85
39.74,-0.84
40.14,-0.84
40.54,-0.84
40.94,-0.83
41.35,-0.83
41.76,-0.83
42.18,-0.82
42.60,-0.81
43.03,-0.80
43.46,-0.80
43.90,-0.79
44.33,-0.79
44.78,-0.78
45.23,-0.77
45.68,-0.74
46.13,-0.72
46.60,-0.70
47.06,-0.68
47.53,-0.67
48.01,-0.66
48.49,-0.66
48.97,-0.65
49.46,-0.65
49.96,-0.65
50.46,-0.64
50.96,-0.63
51.47,-0.60
51.99,-0.57
52.51,-0.54
53.03,-0.54
53.56,-0.55
54.10,-0.56
54.64,-0.57
55.18,-0.56
55.74,-0.56
56.29,-0.55
56.86,-0.55
57.42,-0.55
58.00,-0.54
58.58,-0.54
59.16,-0.53
59.76,-0.51
60.35,-0.50
60.96,-0.50
61.57,-0.49
62.18,-0.49
62.80,-0.48
63.43,-0.47
64.07,-0.46
64.71,-0.45
65.35,-0.44
66.01,-0.44
66.67,-0.43
67.33,-0.43
68.01,-0.44
68.69,-0.44
69.37,-0.43
70.07,-0.42
70.77,-0.42
71.48,-0.42
72.19,-0.44
72.91,-0.44
73.64,-0.44
74.38,-0.44
75.12,-0.43
75.87,-0.42
76.63,-0.42
77.40,-0.42
78.17,-0.41
78.95,-0.41
79.74,-0.42
80.54,-0.43
81.35,-0.43
82.16,-0.44
82.98,-0.44
83.81,-0.44
84.65,-0.45
85.50,-0.45
86.35,-0.46
87.22,-0.46
88.09,-0.47
88.97,-0.46
89.86,-0.46
90.76,-0.46
91.66,-0.47
92.58,-0.47
93.51,-0.47
94.44,-0.47
95.39,-0.48
96.34,-0.48
97.30,-0.49
98.28,-0.49
99.26,-0.50
100.25,-0.50
101.25,-0.51
102.27,-0.52
103.29,-0.53
104.32,-0.54
105.37,-0.55
106.42,-0.55
107.48,-0.55
108.56,-0.56
109.64,-0.57
110.74,-0.58
111.85,-0.59
112.97,-0.60
114.10,-0.61
115.24,-0.62
116.39,-0.65
117.55,-0.66
118.73,-0.66
119.92,-0.65
121.12,-0.65
122.33,-0.66
123.55,-0.67
124.79,-0.68
126.03,-0.68
127.29,-0.68
128.57,-0.70
129.85,-0.71
131.15,-0.73
132.46,-0.75
133.79,-0.75
135.12,-0.76
136.48,-0.76
137.84,-0.77
139.22,-0.78
140.61,-0.80
142.02,-0.82
143.44,-0.84
144.87,-0.85
146.32,-0.87
147.78,-0.89
149.26,-0.92
150.75,-0.94
152.26,-0.95
153.78,-0.94
155.32,-0.92
156.88,-0.91
158.44,-0.91
160.03,-0.92
161.63,-0.93
163.24,-0.94
164.88,-0.95
166.53,-0.95
168.19,-0.96
169.87,-0.98
171.57,-1.00
173.29,-1.02
175.02,-1.05
176.77,-1.08
178.54,-1.12
180.32,-1.16
182.13,-1.20
183.95,-1.23
185.79,-1.24
187.65,-1.26
189.52,-1.28
191.42,-1.29
193.33,-1.31
195.27,-1.32
197.22,-1.32
199.19,-1.33
201.18,-1.35
203.19,-1.38
205.23,-1.40
207.28,-1.41
209.35,-1.42
211.44,-1.44
213.56,-1.45
215.69,-1.47
217.85,-1.49
220.03,-1.51
222.23,-1.53
224.45,-1.55
226.70,-1.56
228.96,-1.57
231.25,-1.59
233.57,-1.60
235.90,-1.61
238.26,-1.63
240.64,-1.65
243.05,-1.68
245.48,-1.70
247.93,-1.72
250.41,-1.73
252.92,-1.75
255.45,-1.77
258.00,-1.79
260.58,-1.81
263.19,-1.83
265.82,-1.85
268.48,-1.86
271.16,-1.88
273.87,-1.90
276.61,-1.91
279.38,-1.93
282.17,-1.94
284.99,-1.95
287.84,-1.96
290.72,-1.97
293.63,-1.99
296.57,-2.01
299.53,-2.03
302.53,-2.04
305.55,-2.06
308.61,-2.07
311.69,-2.08
314.81,-2.09
317.96,-2.10
321.14,-2.11
324.35,-2.13
327.59,-2.14
330.87,-2.16
334.18,-2.18
337.52,-2.20
340.90,-2.22
344.30,-2.24
347.75,-2.26
351.23,-2.27
354.74,-2.27
358.28,-2.27
361.87,-2.27
365.49,-2.28
369.14,-2.29
372.83,-2.31
376.56,-2.33
380.33,-2.34
384.13,-2.36
387.97,-2.37
391.85,-2.37
395.77,-2.37
399.73,-2.37
403.72,-2.37
407.76,-2.37
411.84,-2.38
415.96,-2.39
420.12,-2.40
424.32,-2.41
428.56,-2.42
432.85,-2.42
437.18,-2.41
441.55,-2.41
445.96,-2.41
450.42,-2.41
454.93,-2.41
459.48,-2.41
464.07,-2.40
468.71,-2.40
473.40,-2.40
478.13,-2.41
482.91,-2.41
487.74,-2.41
492.62,-2.41
497.55,-2.41
502.52,-2.41
507.55,-2.40
512.62,-2.40
517.75,-2.41
522.93,-2.40
528.16,-2.39
533.44,-2.38
538.77,-2.38
544.16,-2.38
549.60,-2.37
555.10,-2.36
560.65,-2.33
566.25,-2.31
571.92,-2.29
577.64,-2.27
583.41,-2.26
589.25,-2.25
595.14,-2.23
601.09,-2.21
607.10,-2.20
613.17,-2.18
619.30,-2.16
625.50,-2.14
631.75,-2.12
638.07,-2.09
644.45,-2.06
650.89,-2.04
657.40,-2.02
663.98,-2.00
670.62,-1.97
677.32,-1.93
684.10,-1.89
690.94,-1.85
697.85,-1.80
704.83,-1.76
711.87,-1.72
718.99,-1.67
726.18,-1.63
733.44,-1.58
740.78,-1.55
748.19,-1.52
755.67,-1.47
763.23,-1.43
770.86,-1.38
778.57,-1.34
786.35,-1.29
794.22,-1.25
802.16,-1.19
810.18,-1.14
818.28,-1.10
826.46,-1.05
834.73,-1.01
843.08,-0.97
851.51,-0.93
860.02,-0.88
868.62,-0.83
877.31,-0.78
886.08,-0.73
894.94,-0.68
903.89,-0.63
912.93,-0.56
922.06,-0.48
931.28,-0.41
940.59,-0.34
950.00,-0.28
959.50,-0.22
969.09,-0.17
978.78,-0.12
988.57,-0.07
998.46,-0.01
1008.44,0.05
1018.53,0.13
1028.71,0.22
1039.00,0.32
1049.39,0.40
1059.88,0.48
1070.48,0.54
1081.19,0.60
1092.00,0.65
1102.92,0.71
1113.95,0.77
1125.09,0.82
1136.34,0.86
1147.70,0.91
1159.18,0.95
1170.77,0.98
1182.48,1.01
1194.30,1.05
1206.25,1.10
1218.31,1.14
1230.49,1.15
1242.80,1.16
1255.22,1.21
1267.78,1.28
1280.45,1.34
1293.26,1.36
1306.19,1.37
1319.25,1.38
1332.45,1.42
1345.77,1.47
1359.23,1.50
1372.82,1.50
1386.55,1.51
1400.41,1.56
1414.42,1.60
1428.56,1.58
1442.85,1.54
1457.28,1.47
1471.85,1.40
1486.57,1.33
1501.43,1.25
1516.45,1.13
1531.61,0.97
1546.93,0.84
1562.40,0.71
1578.02,0.55
1593.80,0.41
1609.74,0.34
1625.84,0.34
1642.10,0.34
1658.52,0.30
1675.10,0.28
1691.85,0.31
1708.77,0.34
1725.86,0.38
1743.12,0.45
1760.55,0.52
1778.15,0.58
1795.94,0.62
1813.90,0.67
1832.03,0.73
1850.36,0.72
1868.86,0.68
1887.55,0.65
1906.42,0.62
1925.49,0.59
1944.74,0.57
1964.19,0.56
1983.83,0.54
2003.67,0.55
2023.71,0.61
2043.94,0.72
2064.38,0.87
2085.03,1.05
2105.88,1.23
2126.94,1.41
2148.20,1.60
2169.69,1.82
2191.38,2.05
2213.30,2.25
2235.43,2.43
2257.78,2.59
2280.36,2.73
2303.17,2.86
2326.20,3.01
2349.46,3.17
2372.95,3.37
2396.68,3.61
2420.65,3.89
2444.86,4.17
2469.31,4.45
2494.00,4.76
2518.94,5.10
2544.13,5.44
2569.57,5.76
2595.27,6.03
2621.22,6.27
2647.43,6.52
2673.90,6.76
2700.64,6.97
2727.65,7.16
2754.93,7.32
2782.48,7.44
2810.30,7.52
2838.40,7.60
2866.79,7.68
2895.46,7.76
2924.41,7.83
2953.65,7.88
2983.19,7.89
3013.02,7.88
3043.15,7.85
3073.58,7.78
3104.32,7.70
3135.36,7.61
3166.72,7.50
3198.38,7.40
3230.37,7.29
3262.67,7.16
3295.30,7.02
3328.25,6.85
3361.53,6.67
3395.15,6.47
3429.10,6.26
3463.39,6.05
3498.03,5.84
3533.01,5.65
3568.34,5.50
3604.02,5.37
3640.06,5.27
3676.46,5.22
3713.22,5.24
3750.36,5.36
3787.86,5.57
3825.74,5.82
3864.00,6.05
3902.64,6.18
3941.66,6.21
3981.08,6.13
4020.89,5.98
4061.10,5.79
4101.71,5.59
4142.73,5.41
4184.15,5.25
4226.00,5.05
4268.26,4.83
4310.94,4.58
4354.05,4.34
4397.59,4.09
4441.56,3.85
4485.98,3.60
4530.84,3.35
4576.15,3.10
4621.91,2.88
4668.13,2.67
4714.81,2.48
4761.96,2.31
4809.58,2.15
4857.67,2.01
4906.25,1.90
4955.31,1.82
5004.87,1.76
5054.91,1.73
5105.46,1.73
5156.52,1.78
5208.08,1.91
5260.16,2.09
5312.77,2.37
5365.89,2.77
5419.55,3.30
5473.75,3.96
5528.49,4.72
5583.77,5.52
5639.61,6.30
5696.00,6.98
5752.96,7.47
5810.49,7.68
5868.60,7.58
5927.28,7.12
5986.56,6.36
6046.42,5.37
6106.89,4.19
6167.96,2.96
6229.64,1.72
6291.93,0.54
6354.85,-0.56
6418.40,-1.54
6482.58,-2.39
6547.41,-3.08
6612.88,-3.56
6679.01,-3.89
6745.80,-4.08
6813.26,-4.18
6881.39,-4.23
6950.21,-4.24
7019.71,-4.21
7089.91,-4.14
7160.81,-4.02
7232.41,-3.87
7304.74,-3.69
7377.79,-3.51
7451.56,-3.34
7526.08,-3.23
7601.34,-3.20
7677.35,-3.27
7754.13,-3.49
7831.67,-3.83
7909.98,-4.35
7989.08,-5.00
8068.98,-5.76
8149.67,-6.55
8231.16,-7.29
8313.47,-7.86
8396.61,-8.14
8480.57,-8.17
8565.38,-8.00
8651.03,-7.72
8737.54,-7.44
8824.92,-7.22
8913.17,-7.03
9002.30,-6.88
9092.32,-6.84
9183.25,-6.99
9275.08,-7.37
9367.83,-7.88
9461.51,-8.46
9556.12,-9.22
9651.68,-10.22
9748.20,-11.48
9845.68,-12.87
9944.14,-14.17
10043.58,-14.97
10144.02,-15.31
10245.46,-15.23
10347.91,-14.43
10451.39,-13.08
10555.91,-11.51
10661.46,-10.00
10768.08,-8.68
10875.76,-7.72
10984.52,-7.02
11094.36,-6.41
11205.31,-5.84
11317.36,-5.39
11430.53,-5.10
11544.84,-5.06
11660.29,-5.37
11776.89,-5.97
11894.66,-6.45
12013.60,-6.44
12133.74,-5.89
12255.08,-5.20
12377.63,-4.70
12501.41,-4.41
12626.42,-4.19
12752.68,-3.86
12880.21,-3.44
13009.01,-3.11
13139.10,-3.11
13270.49,-3.53
13403.20,-4.36
13537.23,-5.31
13672.60,-6.14
13809.33,-6.80
13947.42,-7.36
14086.90,-7.81
14227.77,-8.09
14370.04,-8.09
14513.74,-7.77
14658.88,-7.43
14805.47,-7.27
14953.52,-7.34
15103.06,-7.44
15254.09,-7.37
15406.63,-6.76
15560.70,-5.87
15716.30,-5.29
15873.47,-4.94
16032.20,-4.54
16192.52,-4.20
16354.45,-4.14
16517.99,-4.43
16683.17,-4.97
16850.01,-5.60
17018.51,-6.11
17188.69,-6.45
17360.58,-6.66
17534.18,-6.82
17709.53,-7.09
17886.62,-7.81
18065.49,-9.15
18246.14,-10.64
18428.60,-10.63
18612.89,-9.40
18799.02,-8.06
18987.01,-7.09
19176.88,-6.50
19368.65,-6.39
19562.33,-6.66
19757.96,-7.07
19955.54,-7.29
