frequency,raw
20.00,-11.57
20.20,-11.42
20.40,-11.23
20.61,-11.02
20.81,-10.84
21.02,-10.71
21.23,-10.65
21.44,-10.65
21.66,-10.66
21.87,-10.62
22.09,-10.49
22.31,-10.28
22.54,-10.05
22.76,-9.84
22.99,-9.66
23.22,-9.51
23.45,-9.38
23.69,-9.26
23.92,-9.15
24.16,-9.06
24.40,-8.99
24.65,-8.94
24.89,-8.91
25.14,-8.90
25.39,-8.89
25.65,-8.89
25.91,-8.87
26.16,-8.83
26.43,-8.77
26.69,-8.72
26.96,-8.66
27.23,-8.62
27.50,-8.58
27.77,-8.53
28.05,-8.47
28.33,-8.38
28.62,-8.25
28.90,-8.08
29.19,-7.89
29.48,-7.70
29.78,-7.51
30.08,-7.34
30.38,-7.20
30.68,-7.08
30.99,-6.97
31.30,-6.89
31.61,-6.81
31.93,-6.75
32.24,-6.68
32.57,-6.62
32.89,-6.56
33.22,-6.50
33.55,-6.45
33.89,-6.41
34.23,-6.37
34.57,-6.33
34.92,-6.28
35.27,-6.23
35.62,-6.16
35.97,-6.07
36.33,-5.97
36.70,-5.86
37.06,-5.75
37.43,-5.63
37.81,-5.51
38.19,-5.41
38.57,-5.31
38.95,-5.22
39.34,-5.13
39.74,-5.03
40.14,-4.92
40.54,-4.81
40.94,-4.71
41.35,-4.63
41.76,-4.55
42.18,-4.47
42.60,-4.39
43.03,-4.31
43.46,-4.23
43.90,-4.18
44.33,-4.13
44.78,-4.08
45.23,-4.02
45.68,-3.94
46.13,-3.86
46.60,-3.78
47.06,-3.71
47.53,-3.65
48.01,-3.58
48.49,-3.52
48.97,-3.46
49.46,-3.41
49.96,-3.37
50.46,-3.32
50.96,-3.26
51.47,-3.18
51.99,-3.10
52.51,-3.02
53.03,-2.97
53.56,-2.95
54.10,-2.92
54.64,-2.88
55.18,-2.83
55.74,-2.78
56.29,-2.73
56.86,-2.69
57.42,-2.65
58.00,-2.61
58.58,-2.57
59.16,-2.53
59.76,-2.49
60.35,-2.45
60.96,-2.41
61.57,-2.38
62.18,-2.34
62.80,-2.31
63.43,-2.29
64.07,-2.27
64.71,-2.26
65.35,-2.26
66.01,-2.26
66.67,-2.24
67.33,-2.23
68.01,-2.21
68.69,-2.19
69.37,-2.15
70.07,-2.11
70.77,-2.09
71.48,-2.08
72.19,-2.08
72.91,-2.07
73.64,-2.04
74.38,-2.01
75.12,-1.98
75.87,-1.96
76.63,-1.95
77.40,-1.93
78.17,-1.91
78.95,-1.90
79.74,-1.89
80.54,-1.88
81.35,-1.88
82.16,-1.87
82.98,-1.87
83.81,-1.87
84.65,-1.87
85.50,-1.87
86.35,-1.88
87.22,-1.89
88.09,-1.91
88.97,-1.93
89.86,-1.95
90.76,-1.98
91.66,-2.01
92.58,-2.04
93.51,-2.07
94.44,-2.11
95.39,-2.15
96.34,-2.19
97.30,-2.23
98.28,-2.27
99.26,-2.31
100.25,-2.36
101.25,-2.40
102.27,-2.45
103.29,-2.49
104.32,-2.53
105.37,-2.58
106.42,-2.63
107.48,-2.68
108.56,-2.74
109.64,-2.80
110.74,-2.87
111.85,-2.93
112.97,-2.99
114.10,-3.05
115.24,-3.11
116.39,-3.18
117.55,-3.25
118.73,-3.31
119.92,-3.38
121.12,-3.44
122.33,-3.50
123.55,-3.56
124.79,-3.62
126.03,-3.68
127.29,-3.74
128.57,-3.81
129.85,-3.88
131.15,-3.95
132.46,-4.01
133.79,-4.07
135.12,-4.13
136.48,-4.18
137.84,-4.24
139.22,-4.30
140.61,-4.37
142.02,-4.43
143.44,-4.49
144.87,-4.54
146.32,-4.60
147.78,-4.66
149.26,-4.73
150.75,-4.78
152.26,-4.83
153.78,-4.86
155.32,-4.89
156.88,-4.92
158.44,-4.95
160.03,-5.00
161.63,-5.06
163.24,-5.12
164.88,-5.17
166.53,-5.21
168.19,-5.27
169.87,-5.32
171.57,-5.38
173.29,-5.43
175.02,-5.47
176.77,-5.51
178.54,-5.54
180.32,-5.56
182.13,-5.58
183.95,-5.59
185.79,-5.59
187.65,-5.58
189.52,-5.56
191.42,-5.54
193.33,-5.52
195.27,-5.50
197.22,-5.47
199.19,-5.45
201.18,-5.44
203.19,-5.46
205.23,-5.47
207.28,-5.48
209.35,-5.48
211.44,-5.49
213.56,-5.50
215.69,-5.52
217.85,-5.55
220.03,-5.58
222.23,-5.61
224.45,-5.64
226.70,-5.68
228.96,-5.71
231.25,-5.75
233.57,-5.79
235.90,-5.83
238.26,-5.87
240.64,-5.92
243.05,-5.97
245.48,-6.01
247.93,-6.04
250.41,-6.06
252.92,-6.07
255.45,-6.07
258.00,-6.06
260.58,-6.03
263.19,-5.97
265.82,-5.89
268.48,-5.79
271.16,-5.66
273.87,-5.49
276.61,-5.29
279.38,-5.10
282.17,-4.91
284.99,-4.74
287.84,-4.61
290.72,-4.52
293.63,-4.48
296.57,-4.47
299.53,-4.49
302.53,-4.52
305.55,-4.58
308.61,-4.64
311.69,-4.70
314.81,-4.76
317.96,-4.82
321.14,-4.88
324.35,-4.95
327.59,-5.02
330.87,-5.09
334.18,-5.16
337.52,-5.22
340.90,-5.28
344.30,-5.33
347.75,-5.37
351.23,-5.40
354.74,-5.42
358.28,-5.44
361.87,-5.47
365.49,-5.51
369.14,-5.55
372.83,-5.60
376.56,-5.64
380.33,-5.67
384.13,-5.69
387.97,-5.70
391.85,-5.70
395.77,-5.69
399.73,-5.67
403.72,-5.66
407.76,-5.64
411.84,-5.61
415.96,-5.56
420.12,-5.51
424.32,-5.44
428.56,-5.36
432.85,-5.27
437.18,-5.17
441.55,-5.08
445.96,-4.99
450.42,-4.89
454.93,-4.80
459.48,-4.71
464.07,-4.62
468.71,-4.52
473.40,-4.45
478.13,-4.39
482.91,-4.36
487.74,-4.39
492.62,-4.49
497.55,-4.65
502.52,-4.87
507.55,-5.12
512.62,-5.32
517.75,-5.43
522.93,-5.44
528.16,-5.33
533.44,-5.15
538.77,-4.94
544.16,-4.72
549.60,-4.51
555.10,-4.31
560.65,-4.11
566.25,-3.92
571.92,-3.74
577.64,-3.57
583.41,-3.42
589.25,-3.29
595.14,-3.18
601.09,-3.09
607.10,-3.05
613.17,-3.05
619.30,-3.09
625.50,-3.16
631.75,-3.24
638.07,-3.31
644.45,-3.36
650.89,-3.38
657.40,-3.38
663.98,-3.37
670.62,-3.34
677.32,-3.29
684.10,-3.22
690.94,-3.13
697.85,-3.04
704.83,-2.92
711.87,-2.81
718.99,-2.70
726.18,-2.59
733.44,-2.49
740.78,-2.40
748.19,-2.31
755.67,-2.20
763.23,-2.09
770.86,-1.99
778.57,-1.90
786.35,-1.83
794.22,-1.75
802.16,-1.65
810.18,-1.52
818.28,-1.36
826.46,-1.18
834.73,-0.99
843.08,-0.82
851.51,-0.65
860.02,-0.50
868.62,-0.37
877.31,-0.27
886.08,-0.18
894.94,-0.12
903.89,-0.06
912.93,-0.01
922.06,0.03
931.28,0.06
940.59,0.08
950.00,0.08
959.50,0.06
969.09,0.05
978.78,0.03
988.57,0.02
998.46,0.00
1008.44,-0.01
1018.53,-0.02
1028.71,-0.04
1039.00,-0.08
1049.39,-0.14
1059.88,-0.23
1070.48,-0.33
1081.19,-0.42
1092.00,-0.50
1102.92,-0.55
1113.95,-0.59
1125.09,-0.61
1136.34,-0.63
1147.70,-0.67
1159.18,-0.72
1170.77,-0.79
1182.48,-0.86
1194.30,-0.94
1206.25,-1.02
1218.31,-1.11
1230.49,-1.21
1242.80,-1.31
1255.22,-1.42
1267.78,-1.54
1280.45,-1.67
1293.26,-1.80
1306.19,-1.93
1319.25,-2.02
1332.45,-2.08
1345.77,-2.11
1359.23,-2.10
1372.82,-2.08
1386.55,-2.06
1400.41,-2.07
1414.42,-2.09
1428.56,-2.12
1442.85,-2.16
1457.28,-2.21
1471.85,-2.26
1486.57,-2.31
1501.43,-2.37
1516.45,-2.42
1531.61,-2.48
1546.93,-2.55
1562.40,-2.64
1578.02,-2.74
1593.80,-2.85
1609.74,-2.96
1625.84,-3.04
1642.10,-3.08
1658.52,-3.08
1675.10,-3.04
1691.85,-2.99
1708.77,-2.94
1725.86,-2.90
1743.12,-2.87
1760.55,-2.84
1778.15,-2.80
1795.94,-2.76
1813.90,-2.71
1832.03,-2.67
1850.36,-2.63
1868.86,-2.60
1887.55,-2.57
1906.42,-2.54
1925.49,-2.50
1944.74,-2.45
1964.19,-2.41
1983.83,-2.36
2003.67,-2.32
2023.71,-2.28
2043.94,-2.25
2064.38,-2.22
2085.03,-2.18
2105.88,-2.15
2126.94,-2.12
2148.20,-2.09
2169.69,-2.06
2191.38,-2.02
2213.30,-1.98
2235.43,-1.92
2257.78,-1.85
2280.36,-1.77
2303.17,-1.67
2326.20,-1.55
2349.46,-1.44
2372.95,-1.32
2396.68,-1.21
2420.65,-1.11
2444.86,-1.04
2469.31,-0.98
2494.00,-0.93
2518.94,-0.88
2544.13,-0.82
2569.57,-0.75
2595.27,-0.68
2621.22,-0.59
2647.43,-0.47
2673.90,-0.33
2700.64,-0.15
2727.65,0.03
2754.93,0.18
2782.48,0.29
2810.30,0.35
2838.40,0.35
2866.79,0.35
2895.46,0.35
2924.41,0.36
2953.65,0.37
2983.19,0.37
3013.02,0.36
3043.15,0.33
3073.58,0.28
3104.32,0.19
3135.36,0.07
3166.72,-0.09
3198.38,-0.28
3230.37,-0.49
3262.67,-0.73
3295.30,-1.00
3328.25,-1.30
3361.53,-1.61
3395.15,-1.95
3429.10,-2.30
3463.39,-2.65
3498.03,-3.00
3533.01,-3.31
3568.34,-3.59
3604.02,-3.81
3640.06,-3.97
3676.46,-4.06
3713.22,-4.08
3750.36,-4.03
3787.86,-3.91
3825.74,-3.73
3864.00,-3.48
3902.64,-3.16
3941.66,-2.78
3981.08,-2.34
4020.89,-1.86
4061.10,-1.34
4101.71,-0.79
4142.73,-0.24
4184.15,0.29
4226.00,0.78
4268.26,1.22
4310.94,1.61
4354.05,1.94
4397.59,2.24
4441.56,2.49
4485.98,2.71
4530.84,2.89
4576.15,3.02
4621.91,3.11
4668.13,3.15
4714.81,3.15
4761.96,3.12
4809.58,3.06
4857.67,2.98
4906.25,2.90
4955.31,2.82
5004.87,2.75
5054.91,2.71
5105.46,2.68
5156.52,2.68
5208.08,2.70
5260.16,2.75
5312.77,2.81
5365.89,2.89
5419.55,2.99
5473.75,3.10
5528.49,3.22
5583.77,3.35
5639.61,3.48
5696.00,3.60
5752.96,3.70
5810.49,3.76
5868.60,3.77
5927.28,3.74
5986.56,3.68
6046.42,3.59
6106.89,3.49
6167.96,3.38
6229.64,3.29
6291.93,3.20
6354.85,3.13
6418.40,3.06
6482.58,3.00
6547.41,2.92
6612.88,2.83
6679.01,2.72
6745.80,2.58
6813.26,2.43
6881.39,2.26
6950.21,2.08
7019.71,1.91
7089.91,1.75
7160.81,1.60
7232.41,1.46
7304.74,1.34
7377.79,1.25
7451.56,1.18
7526.08,1.17
7601.34,1.22
7677.35,1.34
7754.13,1.55
7831.67,1.84
7909.98,2.22
7989.08,2.68
8068.98,3.20
8149.67,3.77
8231.16,4.37
8313.47,4.97
8396.61,5.55
8480.57,6.05
8565.38,6.37
8651.03,6.47
8737.54,6.29
8824.92,5.75
8913.17,4.93
9002.30,3.87
9092.32,2.66
9183.25,1.37
9275.08,0.01
9367.83,-1.42
9461.51,-2.96
9556.12,-4.71
9651.68,-6.64
9748.20,-8.69
9845.68,-10.55
9944.14,-11.78
10043.58,-11.97
10144.02,-11.45
10245.46,-10.63
10347.91,-9.99
10451.39,-9.65
10555.91,-9.58
10661.46,-9.66
10768.08,-9.69
10875.76,-9.39
10984.52,-8.77
11094.36,-7.87
11205.31,-6.96
11317.36,-6.32
11430.53,-6.10
11544.84,-6.26
11660.29,-6.69
11776.89,-7.27
11894.66,-7.80
12013.60,-8.17
12133.74,-8.28
12255.08,-8.15
12377.63,-7.64
12501.41,-6.68
12626.42,-5.42
12752.68,-4.16
12880.21,-3.12
13009.01,-2.44
13139.10,-2.20
13270.49,-2.33
13403.20,-2.79
13537.23,-3.48
13672.60,-4.32
13809.33,-5.28
13947.42,-6.28
14086.90,-7.30
14227.77,-8.31
14370.04,-9.32
14513.74,-10.38
14658.88,-11.19
14805.47,-11.42
14953.52,-11.64
15103.06,-12.35
15254.09,-13.84
15406.63,-16.16
15560.70,-19.04
15716.30,-21.26
15873.47,-21.78
16032.20,-20.86
16192.52,-19.19
16354.45,-17.54
16517.99,-16.14
16683.17,-15.00
16850.01,-14.10
17018.51,-13.57
17188.69,-13.45
17360.58,-13.87
17534.18,-14.91
17709.53,-16.40
17886.62,-18.07
18065.49,-19.33
18246.14,-19.58
18428.60,-18.53
18612.89,-16.84
18799.02,-14.94
18987.01,-13.14
19176.88,-11.54
19368.65,-10.24
19562.33,-9.18
19757.96,-8.29
19955.54,-7.57
