frequency,raw
20.00,-9.49
20.20,-9.38
20.40,-9.23
20.61,-9.05
20.81,-8.88
21.02,-8.72
21.23,-8.58
21.44,-8.44
21.66,-8.30
21.87,-8.15
22.09,-8.01
22.31,-7.87
22.54,-7.75
22.76,-7.64
22.99,-7.56
23.22,-7.48
23.45,-7.40
23.69,-7.30
23.92,-7.18
24.16,-7.06
24.40,-6.92
24.65,-6.79
24.89,-6.66
25.14,-6.53
25.39,-6.41
25.65,-6.28
25.91,-6.15
26.16,-6.03
26.43,-5.92
26.69,-5.81
26.96,-5.71
27.23,-5.61
27.50,-5.50
27.77,-5.39
28.05,-5.28
28.33,-5.16
28.62,-5.04
28.90,-4.92
29.19,-4.80
29.48,-4.68
29.78,-4.55
30.08,-4.40
30.38,-4.26
30.68,-4.11
30.99,-3.98
31.30,-3.85
31.61,-3.74
31.93,-3.64
32.24,-3.55
32.57,-3.46
32.89,-3.36
33.22,-3.26
33.55,-3.16
33.89,-3.05
34.23,-2.94
34.57,-2.84
34.92,-2.74
35.27,-2.63
35.62,-2.52
35.97,-2.40
36.33,-2.28
36.70,-2.17
37.06,-2.05
37.43,-1.94
37.81,-1.82
38.19,-1.71
38.57,-1.61
38.95,-1.53
39.34,-1.45
39.74,-1.37
40.14,-1.28
40.54,-1.19
40.94,-1.10
41.35,-1.01
41.76,-0.93
42.18,-0.85
42.60,-0.77
43.03,-0.69
43.46,-0.61
43.90,-0.53
44.33,-0.46
44.78,-0.38
45.23,-0.31
45.68,-0.23
46.13,-0.15
46.60,-0.06
47.06,0.01
47.53,0.08
48.01,0.14
48.49,0.20
48.97,0.25
49.46,0.29
49.96,0.31
50.46,0.35
50.96,0.40
51.47,0.48
51.99,0.56
52.51,0.62
53.03,0.67
53.56,0.70
54.10,0.75
54.64,0.80
55.18,0.86
55.74,0.93
56.29,0.98
56.86,1.03
57.42,1.07
58.00,1.11
58.58,1.14
59.16,1.17
59.76,1.21
60.35,1.24
60.96,1.26
61.57,1.27
62.18,1.28
62.80,1.30
63.43,1.32
64.07,1.33
64.71,1.35
65.35,1.36
66.01,1.37
66.67,1.40
67.33,1.42
68.01,1.45
68.69,1.48
69.37,1.52
70.07,1.56
70.77,1.60
71.48,1.62
72.19,1.64
72.91,1.66
73.64,1.69
74.38,1.72
75.12,1.75
75.87,1.77
76.63,1.79
77.40,1.79
78.17,1.80
78.95,1.80
79.74,1.81
80.54,1.81
81.35,1.81
82.16,1.81
82.98,1.81
83.81,1.81
84.65,1.81
85.50,1.81
86.35,1.81
87.22,1.81
88.09,1.81
88.97,1.81
89.86,1.81
90.76,1.81
91.66,1.81
92.58,1.80
93.51,1.79
94.44,1.79
95.39,1.78
96.34,1.77
97.30,1.77
98.28,1.76
99.26,1.76
100.25,1.74
101.25,1.73
102.27,1.72
103.29,1.71
104.32,1.71
105.37,1.70
106.42,1.69
107.48,1.68
108.56,1.67
109.64,1.65
110.74,1.63
111.85,1.61
112.97,1.60
114.10,1.58
115.24,1.56
116.39,1.54
117.55,1.52
118.73,1.50
119.92,1.49
121.12,1.48
122.33,1.47
123.55,1.46
124.79,1.44
126.03,1.43
127.29,1.41
128.57,1.39
129.85,1.37
131.15,1.34
132.46,1.31
133.79,1.29
135.12,1.27
136.48,1.26
137.84,1.25
139.22,1.23
140.61,1.19
142.02,1.16
143.44,1.14
144.87,1.12
146.32,1.10
147.78,1.07
149.26,1.04
150.75,1.01
152.26,0.99
153.78,0.98
155.32,0.98
156.88,0.98
158.44,0.96
160.03,0.94
161.63,0.92
163.24,0.89
164.88,0.86
166.53,0.83
168.19,0.81
169.87,0.77
171.57,0.74
173.29,0.69
175.02,0.64
176.77,0.58
178.54,0.53
180.32,0.49
182.13,0.46
183.95,0.46
185.79,0.46
187.65,0.47
189.52,0.50
191.42,0.53
193.33,0.58
195.27,0.61
197.22,0.64
199.19,0.63
201.18,0.59
203.19,0.54
205.23,0.49
207.28,0.44
209.35,0.38
211.44,0.33
213.56,0.27
215.69,0.22
217.85,0.17
220.03,0.11
222.23,0.06
224.45,-0.00
226.70,-0.05
228.96,-0.11
231.25,-0.16
233.57,-0.20
235.90,-0.25
238.26,-0.31
240.64,-0.37
243.05,-0.44
245.48,-0.49
247.93,-0.53
250.41,-0.55
252.92,-0.53
255.45,-0.46
258.00,-0.34
260.58,-0.17
263.19,0.04
265.82,0.26
268.48,0.47
271.16,0.63
273.87,0.73
276.61,0.79
279.38,0.80
282.17,0.79
284.99,0.76
287.84,0.72
290.72,0.66
293.63,0.61
296.57,0.55
299.53,0.50
302.53,0.44
305.55,0.39
308.61,0.34
311.69,0.30
314.81,0.26
317.96,0.22
321.14,0.17
324.35,0.14
327.59,0.12
330.87,0.09
334.18,0.05
337.52,0.02
340.90,-0.02
344.30,-0.05
347.75,-0.09
351.23,-0.11
354.74,-0.13
358.28,-0.14
361.87,-0.16
365.49,-0.19
369.14,-0.22
372.83,-0.25
376.56,-0.27
380.33,-0.29
384.13,-0.31
387.97,-0.32
391.85,-0.35
395.77,-0.37
399.73,-0.40
403.72,-0.42
407.76,-0.44
411.84,-0.46
415.96,-0.48
420.12,-0.50
424.32,-0.52
428.56,-0.54
432.85,-0.56
437.18,-0.57
441.55,-0.57
445.96,-0.59
450.42,-0.60
454.93,-0.61
459.48,-0.61
464.07,-0.62
468.71,-0.63
473.40,-0.64
478.13,-0.66
482.91,-0.67
487.74,-0.68
492.62,-0.68
497.55,-0.68
502.52,-0.68
507.55,-0.68
512.62,-0.68
517.75,-0.69
522.93,-0.71
528.16,-0.71
533.44,-0.71
538.77,-0.72
544.16,-0.72
549.60,-0.72
555.10,-0.72
560.65,-0.71
566.25,-0.70
571.92,-0.68
577.64,-0.67
583.41,-0.66
589.25,-0.66
595.14,-0.66
601.09,-0.65
607.10,-0.64
613.17,-0.64
619.30,-0.64
625.50,-0.63
631.75,-0.62
638.07,-0.61
644.45,-0.60
650.89,-0.59
657.40,-0.58
663.98,-0.58
670.62,-0.57
677.32,-0.55
684.10,-0.54
690.94,-0.53
697.85,-0.51
704.83,-0.49
711.87,-0.47
718.99,-0.46
726.18,-0.44
733.44,-0.42
740.78,-0.41
748.19,-0.40
755.67,-0.38
763.23,-0.37
770.86,-0.35
778.57,-0.34
786.35,-0.32
794.22,-0.31
802.16,-0.29
810.18,-0.28
818.28,-0.26
826.46,-0.24
834.73,-0.23
843.08,-0.21
851.51,-0.20
860.02,-0.20
868.62,-0.19
877.31,-0.18
886.08,-0.16
894.94,-0.14
903.89,-0.12
912.93,-0.10
922.06,-0.08
931.28,-0.06
940.59,-0.04
950.00,-0.03
959.50,-0.02
969.09,-0.01
978.78,-0.01
988.57,-0.00
998.46,-0.00
1008.44,0.00
1018.53,0.01
1028.71,0.02
1039.00,0.03
1049.39,0.05
1059.88,0.07
1070.48,0.09
1081.19,0.10
1092.00,0.12
1102.92,0.14
1113.95,0.16
1125.09,0.18
1136.34,0.20
1147.70,0.22
1159.18,0.24
1170.77,0.27
1182.48,0.31
1194.30,0.33
1206.25,0.35
1218.31,0.37
1230.49,0.41
1242.80,0.46
1255.22,0.51
1267.78,0.56
1280.45,0.61
1293.26,0.64
1306.19,0.68
1319.25,0.73
1332.45,0.78
1345.77,0.83
1359.23,0.88
1372.82,0.94
1386.55,0.99
1400.41,1.05
1414.42,1.11
1428.56,1.16
1442.85,1.22
1457.28,1.29
1471.85,1.38
1486.57,1.46
1501.43,1.52
1516.45,1.58
1531.61,1.66
1546.93,1.73
1562.40,1.76
1578.02,1.75
1593.80,1.73
1609.74,1.75
1625.84,1.83
1642.10,1.97
1658.52,2.11
1675.10,2.24
1691.85,2.37
1708.77,2.51
1725.86,2.67
1743.12,2.85
1760.55,3.07
1778.15,3.32
1795.94,3.62
1813.90,3.99
1832.03,4.43
1850.36,4.92
1868.86,5.44
1887.55,5.97
1906.42,6.53
1925.49,7.14
1944.74,7.78
1964.19,8.39
1983.83,8.94
2003.67,9.42
2023.71,9.82
2043.94,10.17
2064.38,10.46
2085.03,10.65
2105.88,10.73
2126.94,10.69
2148.20,10.57
2169.69,10.35
2191.38,10.05
2213.30,9.74
2235.43,9.44
2257.78,9.14
2280.36,8.85
2303.17,8.60
2326.20,8.38
2349.46,8.16
2372.95,7.96
2396.68,7.81
2420.65,7.70
2444.86,7.56
2469.31,7.39
2494.00,7.21
2518.94,7.04
2544.13,6.89
2569.57,6.72
2595.27,6.52
2621.22,6.34
2647.43,6.18
2673.90,6.03
2700.64,5.86
2727.65,5.70
2754.93,5.58
2782.48,5.47
2810.30,5.34
2838.40,5.20
2866.79,5.08
2895.46,4.97
2924.41,4.85
2953.65,4.73
2983.19,4.63
3013.02,4.53
3043.15,4.41
3073.58,4.29
3104.32,4.19
3135.36,4.07
3166.72,3.94
3198.38,3.81
3230.37,3.70
3262.67,3.62
3295.30,3.53
3328.25,3.39
3361.53,3.19
3395.15,2.91
3429.10,2.61
3463.39,2.34
3498.03,2.08
3533.01,1.80
3568.34,1.51
3604.02,1.21
3640.06,0.93
3676.46,0.80
3713.22,0.90
3750.36,1.25
3787.86,1.83
3825.74,2.55
3864.00,3.37
3902.64,4.23
3941.66,5.10
3981.08,5.99
4020.89,6.86
4061.10,7.68
4101.71,8.35
4142.73,8.81
4184.15,9.04
4226.00,9.00
4268.26,8.80
4310.94,8.49
4354.05,8.13
4397.59,7.70
4441.56,7.18
4485.98,6.57
4530.84,5.89
4576.15,5.21
4621.91,4.55
4668.13,3.93
4714.81,3.36
4761.96,2.84
4809.58,2.38
4857.67,1.96
4906.25,1.57
4955.31,1.19
5004.87,0.78
5054.91,0.30
5105.46,-0.18
5156.52,-0.60
5208.08,-0.95
5260.16,-1.34
5312.77,-1.84
5365.89,-2.43
5419.55,-3.01
5473.75,-3.45
5528.49,-3.72
5583.77,-3.88
5639.61,-3.97
5696.00,-3.98
5752.96,-3.93
5810.49,-3.85
5868.60,-3.80
5927.28,-3.78
5986.56,-3.80
6046.42,-3.89
6106.89,-4.03
6167.96,-4.18
6229.64,-4.26
6291.93,-4.23
6354.85,-4.10
6418.40,-3.93
6482.58,-3.75
6547.41,-3.52
6612.88,-3.20
6679.01,-2.84
6745.80,-2.47
6813.26,-2.13
6881.39,-1.83
6950.21,-1.62
7019.71,-1.51
7089.91,-1.51
7160.81,-1.63
7232.41,-1.88
7304.74,-2.25
7377.79,-2.67
7451.56,-3.03
7526.08,-3.25
7601.34,-3.32
7677.35,-3.24
7754.13,-3.05
7831.67,-2.78
7909.98,-2.37
7989.08,-1.84
8068.98,-1.29
8149.67,-0.81
8231.16,-0.41
8313.47,-0.06
8396.61,0.28
8480.57,0.62
8565.38,0.94
8651.03,1.22
8737.54,1.44
8824.92,1.56
8913.17,1.57
9002.30,1.48
9092.32,1.28
9183.25,1.01
9275.08,0.64
9367.83,0.17
9461.51,-0.37
9556.12,-0.96
9651.68,-1.56
9748.20,-2.12
9845.68,-2.67
9944.14,-3.30
10043.58,-4.15
10144.02,-5.30
10245.46,-6.80
10347.91,-8.66
10451.39,-10.70
10555.91,-12.64
10661.46,-13.94
10768.08,-14.21
10875.76,-13.36
10984.52,-12.19
11094.36,-11.09
11205.31,-10.14
11317.36,-9.35
11430.53,-8.66
11544.84,-7.95
11660.29,-7.17
11776.89,-6.36
11894.66,-5.62
12013.60,-5.10
12133.74,-4.96
12255.08,-5.19
12377.63,-5.72
12501.41,-6.25
12626.42,-6.41
12752.68,-5.85
12880.21,-4.87
13009.01,-3.80
13139.10,-2.88
13270.49,-2.18
13403.20,-1.74
13537.23,-1.56
13672.60,-1.66
13809.33,-2.12
13947.42,-2.90
14086.90,-3.95
14227.77,-5.16
14370.04,-6.46
14513.74,-7.72
14658.88,-8.69
14805.47,-9.46
14953.52,-10.38
15103.06,-11.64
15254.09,-13.09
15406.63,-14.22
15560.70,-14.43
15716.30,-13.48
15873.47,-12.09
16032.20,-10.63
16192.52,-9.33
16354.45,-8.24
16517.99,-7.42
16683.17,-6.97
16850.01,-6.94
17018.51,-7.52
17188.69,-8.59
17360.58,-10.07
17534.18,-11.81
17709.53,-13.63
17886.62,-15.50
18065.49,-17.42
18246.14,-19.38
18428.60,-21.25
18612.89,-22.88
18799.02,-24.12
18987.01,-24.94
19176.88,-25.52
19368.65,-25.66
19562.33,-24.47
19757.96,-22.09
19955.54,-19.96
