frequency,raw
20.00,-18.55
20.20,-18.43
20.40,-18.29
20.61,-18.15
20.81,-18.07
21.02,-18.04
21.23,-18.03
21.44,-17.99
21.66,-17.90
21.87,-17.71
22.09,-17.47
22.31,-17.23
22.54,-17.01
22.76,-16.84
22.99,-16.74
23.22,-16.67
23.45,-16.59
23.69,-16.47
23.92,-16.31
24.16,-16.13
24.40,-15.95
24.65,-15.77
24.89,-15.61
25.14,-15.48
25.39,-15.37
25.65,-15.30
25.91,-15.26
26.16,-15.24
26.43,-15.25
26.69,-15.28
26.96,-15.32
27.23,-15.35
27.50,-15.34
27.77,-15.25
28.05,-15.06
28.33,-14.81
28.62,-14.51
28.90,-14.22
29.19,-13.95
29.48,-13.71
29.78,-13.50
30.08,-13.31
30.38,-13.15
30.68,-13.01
30.99,-12.90
31.30,-12.79
31.61,-12.67
31.93,-12.53
32.24,-12.35
32.57,-12.16
32.89,-11.95
33.22,-11.74
33.55,-11.56
33.89,-11.40
34.23,-11.28
34.57,-11.18
34.92,-11.08
35.27,-10.98
35.62,-10.87
35.97,-10.74
36.33,-10.60
36.70,-10.45
37.06,-10.30
37.43,-10.14
37.81,-9.99
38.19,-9.84
38.57,-9.70
38.95,-9.56
39.34,-9.43
39.74,-9.29
40.14,-9.14
40.54,-8.99
40.94,-8.84
41.35,-8.69
41.76,-8.52
42.18,-8.34
42.60,-8.16
43.03,-8.01
43.46,-7.88
43.90,-7.76
44.33,-7.65
44.78,-7.52
45.23,-7.37
45.68,-7.21
46.13,-7.05
46.60,-6.90
47.06,-6.75
47.53,-6.60
48.01,-6.45
48.49,-6.31
48.97,-6.17
49.46,-6.04
49.96,-5.91
50.46,-5.77
50.96,-5.61
51.47,-5.44
51.99,-5.27
52.51,-5.11
53.03,-4.97
53.56,-4.83
54.10,-4.69
54.64,-4.54
55.18,-4.39
55.74,-4.24
56.29,-4.10
56.86,-3.96
57.42,-3.81
58.00,-3.67
58.58,-3.53
59.16,-3.39
59.76,-3.24
60.35,-3.10
60.96,-2.96
61.57,-2.82
62.18,-2.67
62.80,-2.52
63.43,-2.36
64.07,-2.20
64.71,-2.04
65.35,-1.89
66.01,-1.73
66.67,-1.57
67.33,-1.40
68.01,-1.24
68.69,-1.09
69.37,-0.94
70.07,-0.79
70.77,-0.63
71.48,-0.49
72.19,-0.35
72.91,-0.21
73.64,-0.05
74.38,0.10
75.12,0.26
75.87,0.41
76.63,0.56
77.40,0.70
78.17,0.85
78.95,0.98
79.74,1.11
80.54,1.23
81.35,1.36
82.16,1.49
82.98,1.61
83.81,1.74
84.65,1.86
85.50,1.97
86.35,2.08
87.22,2.19
88.09,2.30
88.97,2.41
89.86,2.51
90.76,2.61
91.66,2.70
92.58,2.79
93.51,2.87
94.44,2.96
95.39,3.04
96.34,3.12
97.30,3.19
98.28,3.27
99.26,3.34
100.25,3.40
101.25,3.45
102.27,3.50
103.29,3.55
104.32,3.59
105.37,3.64
106.42,3.68
107.48,3.71
108.56,3.74
109.64,3.76
110.74,3.78
111.85,3.80
112.97,3.82
114.10,3.83
115.24,3.84
116.39,3.85
117.55,3.85
118.73,3.86
119.92,3.86
121.12,3.85
122.33,3.85
123.55,3.84
124.79,3.83
126.03,3.81
127.29,3.80
128.57,3.78
129.85,3.76
131.15,3.74
132.46,3.71
133.79,3.68
135.12,3.65
136.48,3.62
137.84,3.59
139.22,3.55
140.61,3.51
142.02,3.46
143.44,3.42
144.87,3.38
146.32,3.34
147.78,3.29
149.26,3.24
150.75,3.20
152.26,3.16
153.78,3.13
155.32,3.11
156.88,3.08
158.44,3.04
160.03,2.99
161.63,2.94
163.24,2.89
164.88,2.85
166.53,2.81
168.19,2.75
169.87,2.70
171.57,2.64
173.29,2.58
175.02,2.52
176.77,2.45
178.54,2.37
180.32,2.30
182.13,2.23
183.95,2.19
185.79,2.15
187.65,2.11
189.52,2.08
191.42,2.03
193.33,1.99
195.27,1.95
197.22,1.93
199.19,1.90
201.18,1.87
203.19,1.82
205.23,1.77
207.28,1.73
209.35,1.69
211.44,1.66
213.56,1.62
215.69,1.59
217.85,1.54
220.03,1.49
222.23,1.44
224.45,1.39
226.70,1.34
228.96,1.28
231.25,1.23
233.57,1.19
235.90,1.17
238.26,1.15
240.64,1.11
243.05,1.07
245.48,1.04
247.93,1.01
250.41,0.97
252.92,0.94
255.45,0.90
258.00,0.85
260.58,0.81
263.19,0.76
265.82,0.71
268.48,0.66
271.16,0.61
273.87,0.55
276.61,0.50
279.38,0.45
282.17,0.39
284.99,0.34
287.84,0.28
290.72,0.21
293.63,0.14
296.57,0.08
299.53,0.02
302.53,-0.02
305.55,-0.04
308.61,-0.04
311.69,-0.02
314.81,0.03
317.96,0.08
321.14,0.14
324.35,0.22
327.59,0.32
330.87,0.44
334.18,0.53
337.52,0.61
340.90,0.67
344.30,0.72
347.75,0.78
351.23,0.86
354.74,0.96
358.28,1.07
361.87,1.18
365.49,1.27
369.14,1.34
372.83,1.37
376.56,1.36
380.33,1.33
384.13,1.29
387.97,1.25
391.85,1.22
395.77,1.19
399.73,1.16
403.72,1.13
407.76,1.11
411.84,1.09
415.96,1.05
420.12,1.00
424.32,0.95
428.56,0.91
432.85,0.88
437.18,0.87
441.55,0.86
445.96,0.83
450.42,0.79
454.93,0.77
459.48,0.74
464.07,0.71
468.71,0.68
473.40,0.64
478.13,0.59
482.91,0.55
487.74,0.51
492.62,0.47
497.55,0.42
502.52,0.39
507.55,0.35
512.62,0.31
517.75,0.26
522.93,0.21
528.16,0.17
533.44,0.13
538.77,0.08
544.16,0.02
549.60,-0.03
555.10,-0.06
560.65,-0.08
566.25,-0.10
571.92,-0.13
577.64,-0.17
583.41,-0.22
589.25,-0.26
595.14,-0.30
601.09,-0.33
607.10,-0.36
613.17,-0.38
619.30,-0.41
625.50,-0.44
631.75,-0.45
638.07,-0.45
644.45,-0.46
650.89,-0.47
657.40,-0.47
663.98,-0.46
670.62,-0.44
677.32,-0.42
684.10,-0.40
690.94,-0.38
697.85,-0.35
704.83,-0.32
711.87,-0.27
718.99,-0.22
726.18,-0.17
733.44,-0.12
740.78,-0.07
748.19,-0.03
755.67,0.03
763.23,0.10
770.86,0.15
778.57,0.20
786.35,0.27
794.22,0.34
802.16,0.43
810.18,0.50
818.28,0.56
826.46,0.61
834.73,0.65
843.08,0.69
851.51,0.74
860.02,0.79
868.62,0.82
877.31,0.84
886.08,0.84
894.94,0.85
903.89,0.87
912.93,0.88
922.06,0.88
931.28,0.85
940.59,0.79
950.00,0.67
959.50,0.53
969.09,0.39
978.78,0.27
988.57,0.14
998.46,0.02
1008.44,-0.11
1018.53,-0.24
1028.71,-0.37
1039.00,-0.54
1049.39,-0.76
1059.88,-1.02
1070.48,-1.30
1081.19,-1.56
1092.00,-1.80
1102.92,-2.03
1113.95,-2.26
1125.09,-2.48
1136.34,-2.66
1147.70,-2.78
1159.18,-2.83
1170.77,-2.81
1182.48,-2.72
1194.30,-2.56
1206.25,-2.34
1218.31,-2.06
1230.49,-1.70
1242.80,-1.31
1255.22,-0.92
1267.78,-0.57
1280.45,-0.24
1293.26,0.07
1306.19,0.37
1319.25,0.61
1332.45,0.77
1345.77,0.87
1359.23,0.92
1372.82,0.92
1386.55,0.86
1400.41,0.75
1414.42,0.59
1428.56,0.42
1442.85,0.25
1457.28,0.07
1471.85,-0.11
1486.57,-0.29
1501.43,-0.48
1516.45,-0.67
1531.61,-0.86
1546.93,-1.04
1562.40,-1.22
1578.02,-1.38
1593.80,-1.48
1609.74,-1.55
1625.84,-1.60
1642.10,-1.64
1658.52,-1.67
1675.10,-1.65
1691.85,-1.62
1708.77,-1.59
1725.86,-1.55
1743.12,-1.50
1760.55,-1.46
1778.15,-1.43
1795.94,-1.37
1813.90,-1.27
1832.03,-1.18
1850.36,-1.12
1868.86,-1.07
1887.55,-1.05
1906.42,-1.06
1925.49,-1.09
1944.74,-1.14
1964.19,-1.16
1983.83,-1.17
2003.67,-1.16
2023.71,-1.14
2043.94,-1.09
2064.38,-1.03
2085.03,-0.97
2105.88,-0.93
2126.94,-0.88
2148.20,-0.82
2169.69,-0.76
2191.38,-0.73
2213.30,-0.71
2235.43,-0.70
2257.78,-0.70
2280.36,-0.72
2303.17,-0.75
2326.20,-0.77
2349.46,-0.77
2372.95,-0.72
2396.68,-0.60
2420.65,-0.42
2444.86,-0.26
2469.31,-0.15
2494.00,-0.02
2518.94,0.15
2544.13,0.30
2569.57,0.42
2595.27,0.49
2621.22,0.52
2647.43,0.55
2673.90,0.60
2700.64,0.68
2727.65,0.86
2754.93,1.15
2782.48,1.48
2810.30,1.76
2838.40,2.02
2866.79,2.34
2895.46,2.66
2924.41,2.91
2953.65,3.10
2983.19,3.27
3013.02,3.41
3043.15,3.48
3073.58,3.50
3104.32,3.48
3135.36,3.39
3166.72,3.21
3198.38,2.97
3230.37,2.63
3262.67,2.22
3295.30,1.74
3328.25,1.25
3361.53,0.73
3395.15,0.18
3429.10,-0.41
3463.39,-1.02
3498.03,-1.62
3533.01,-2.08
3568.34,-2.34
3604.02,-2.24
3640.06,-1.72
3676.46,-0.88
3713.22,0.07
3750.36,0.95
3787.86,1.67
3825.74,2.26
3864.00,2.87
3902.64,3.70
3941.66,4.78
3981.08,5.97
4020.89,7.05
4061.10,7.88
4101.71,8.43
4142.73,8.78
4184.15,8.98
4226.00,9.05
4268.26,9.06
4310.94,9.03
4354.05,8.91
4397.59,8.69
4441.56,8.38
4485.98,8.09
4530.84,7.93
4576.15,8.02
4621.91,8.30
4668.13,8.62
4714.81,8.84
4761.96,8.88
4809.58,8.74
4857.67,8.51
4906.25,8.24
4955.31,7.96
5004.87,7.66
5054.91,7.36
5105.46,7.07
5156.52,6.82
5208.08,6.63
5260.16,6.55
5312.77,6.61
5365.89,6.79
5419.55,7.00
5473.75,7.23
5528.49,7.48
5583.77,7.78
5639.61,8.12
5696.00,8.52
5752.96,9.02
5810.49,9.66
5868.60,10.42
5927.28,11.19
5986.56,11.84
6046.42,12.25
6106.89,12.29
6167.96,12.04
6229.64,11.53
6291.93,10.81
6354.85,9.90
6418.40,8.79
6482.58,7.61
6547.41,6.44
6612.88,5.36
6679.01,4.37
6745.80,3.49
6813.26,2.67
6881.39,1.88
6950.21,1.08
7019.71,0.31
7089.91,-0.37
7160.81,-0.90
7232.41,-1.29
7304.74,-1.51
7377.79,-1.57
7451.56,-1.52
7526.08,-1.37
7601.34,-1.16
7677.35,-0.85
7754.13,-0.46
7831.67,-0.05
7909.98,0.33
7989.08,0.66
8068.98,0.92
8149.67,1.13
8231.16,1.37
8313.47,1.69
8396.61,2.11
8480.57,2.57
8565.38,2.94
8651.03,3.00
8737.54,2.51
8824.92,1.20
8913.17,-0.75
9002.30,-3.20
9092.32,-5.82
9183.25,-8.14
9275.08,-9.42
9367.83,-9.77
9461.51,-9.68
9556.12,-9.24
9651.68,-8.40
9748.20,-7.23
9845.68,-5.87
9944.14,-4.46
10043.58,-3.22
10144.02,-2.32
10245.46,-1.82
10347.91,-1.75
10451.39,-1.96
10555.91,-2.34
10661.46,-2.68
10768.08,-2.75
10875.76,-2.42
10984.52,-1.93
11094.36,-1.43
11205.31,-1.03
11317.36,-0.81
11430.53,-0.83
11544.84,-1.06
11660.29,-1.38
11776.89,-1.63
11894.66,-1.69
12013.60,-1.54
12133.74,-1.28
12255.08,-0.95
12377.63,-0.54
12501.41,-0.05
12626.42,0.44
12752.68,0.67
12880.21,0.46
13009.01,-0.31
13139.10,-1.66
13270.49,-3.45
13403.20,-5.53
13537.23,-7.50
13672.60,-9.24
13809.33,-10.61
13947.42,-11.09
14086.90,-10.13
14227.77,-8.60
14370.04,-7.42
14513.74,-6.93
14658.88,-6.86
14805.47,-6.48
14953.52,-5.53
15103.06,-4.86
15254.09,-5.07
15406.63,-6.29
15560.70,-8.34
15716.30,-10.92
15873.47,-12.72
16032.20,-12.54
16192.52,-11.02
16354.45,-9.39
16517.99,-8.09
16683.17,-7.26
16850.01,-6.82
17018.51,-6.67
17188.69,-6.57
17360.58,-6.35
17534.18,-5.90
17709.53,-5.37
17886.62,-5.15
18065.49,-5.48
18246.14,-6.37
18428.60,-7.69
18612.89,-8.98
18799.02,-9.67
18987.01,-9.35
19176.88,-8.57
19368.65,-7.96
19562.33,-7.71
19757.96,-7.65
19955.54,-7.58
