frequency,raw
20.00,5.71
20.20,5.81
20.40,5.89
20.61,5.94
20.81,5.93
21.02,5.90
21.23,5.83
21.44,5.77
21.66,5.72
21.87,5.69
22.09,5.74
22.31,5.83
22.54,5.97
22.76,6.14
22.99,6.33
23.22,6.50
23.45,6.66
23.69,6.79
23.92,6.89
24.16,6.96
24.40,7.00
24.65,7.00
24.89,6.98
25.14,6.93
25.39,6.87
25.65,6.83
25.91,6.83
26.16,6.88
26.43,6.99
26.69,7.14
26.96,7.29
27.23,7.40
27.50,7.44
27.77,7.41
28.05,7.33
28.33,7.23
28.62,7.18
28.90,7.19
29.19,7.28
29.48,7.41
29.78,7.51
30.08,7.58
30.38,7.57
30.68,7.49
30.99,7.41
31.30,7.38
31.61,7.42
31.93,7.52
32.24,7.63
32.57,7.74
32.89,7.81
33.22,7.85
33.55,7.89
33.89,7.92
34.23,7.94
34.57,7.96
34.92,7.96
35.27,7.95
35.62,7.94
35.97,7.94
36.33,7.97
36.70,8.00
37.06,8.03
37.43,8.04
37.81,8.04
38.19,8.04
38.57,8.05
38.95,8.07
39.34,8.09
39.74,8.12
40.14,8.14
40.54,8.15
40.94,8.15
41.35,8.15
41.76,8.15
42.18,8.16
42.60,8.18
43.03,8.21
43.46,8.23
43.90,8.24
44.33,8.22
44.78,8.21
45.23,8.20
45.68,8.20
46.13,8.20
46.60,8.18
47.06,8.18
47.53,8.19
48.01,8.22
48.49,8.23
48.97,8.20
49.46,8.13
49.96,8.08
50.46,8.08
50.96,8.08
51.47,8.07
51.99,8.03
52.51,8.00
53.03,7.99
53.56,7.99
54.10,7.97
54.64,7.91
55.18,7.85
55.74,7.83
56.29,7.82
56.86,7.80
57.42,7.74
58.00,7.68
58.58,7.64
59.16,7.61
59.76,7.56
60.35,7.51
60.96,7.45
61.57,7.42
62.18,7.39
62.80,7.33
63.43,7.28
64.07,7.22
64.71,7.17
65.35,7.11
66.01,7.05
66.67,7.00
67.33,6.93
68.01,6.84
68.69,6.76
69.37,6.68
70.07,6.60
70.77,6.53
71.48,6.49
72.19,6.45
72.91,6.36
73.64,6.23
74.38,6.13
75.12,6.07
75.87,5.99
76.63,5.92
77.40,5.84
78.17,5.78
78.95,5.71
79.74,5.60
80.54,5.52
81.35,5.44
82.16,5.32
82.98,5.21
83.81,5.12
84.65,5.03
85.50,4.91
86.35,4.80
87.22,4.77
88.09,4.74
88.97,4.73
89.86,4.72
90.76,4.68
91.66,4.62
92.58,4.56
93.51,4.47
94.44,4.35
95.39,4.26
96.34,4.21
97.30,4.10
98.28,4.25
99.26,4.19
100.25,3.92
101.25,3.98
102.27,3.90
103.29,3.81
104.32,3.79
105.37,3.65
106.42,3.46
107.48,3.20
108.56,3.22
109.64,3.23
110.74,3.23
111.85,3.22
112.97,3.42
114.10,3.56
115.24,3.47
116.39,3.36
117.55,3.27
118.73,3.30
119.92,3.37
121.12,3.41
122.33,3.41
123.55,3.45
124.79,3.45
126.03,3.40
127.29,3.39
128.57,3.40
129.85,3.39
131.15,3.38
132.46,3.28
133.79,3.17
135.12,3.09
136.48,3.01
137.84,2.92
139.22,2.88
140.61,2.84
142.02,2.76
143.44,2.70
144.87,2.68
146.32,2.60
147.78,2.51
149.26,2.38
150.75,2.29
152.26,2.25
153.78,2.15
155.32,2.04
156.88,1.89
158.44,1.75
160.03,1.62
161.63,1.46
163.24,1.31
164.88,1.18
166.53,1.02
168.19,0.87
169.87,0.73
171.57,0.49
173.29,0.29
175.02,0.14
176.77,-0.03
178.54,-0.21
180.32,-0.38
182.13,-0.54
183.95,-0.70
185.79,-0.86
187.65,-1.02
189.52,-1.16
191.42,-1.29
193.33,-1.42
195.27,-1.54
197.22,-1.60
199.19,-1.61
201.18,-1.63
203.19,-1.64
205.23,-1.61
207.28,-1.56
209.35,-1.50
211.44,-1.42
213.56,-1.37
215.69,-1.30
217.85,-1.21
220.03,-1.12
222.23,-1.02
224.45,-0.93
226.70,-0.88
228.96,-0.75
231.25,-0.68
233.57,-0.64
235.90,-0.53
238.26,-0.45
240.64,-0.41
243.05,-0.46
245.48,-0.50
247.93,-0.49
250.41,-0.39
252.92,-0.32
255.45,-0.27
258.00,-0.23
260.58,-0.09
263.19,-0.03
265.82,0.01
268.48,0.15
271.16,0.18
273.87,0.31
276.61,0.48
279.38,0.59
282.17,0.66
284.99,0.71
287.84,0.70
290.72,0.69
293.63,0.69
296.57,0.64
299.53,0.55
302.53,0.56
305.55,0.58
308.61,0.57
311.69,0.56
314.81,0.57
317.96,0.55
321.14,0.53
324.35,0.49
327.59,0.51
330.87,0.56
334.18,0.61
337.52,0.60
340.90,0.57
344.30,0.57
347.75,0.59
351.23,0.61
354.74,0.67
358.28,0.67
361.87,0.71
365.49,0.78
369.14,0.86
372.83,0.91
376.56,0.95
380.33,1.00
384.13,1.07
387.97,1.13
391.85,1.13
395.77,1.14
399.73,1.18
403.72,1.22
407.76,1.25
411.84,1.28
415.96,1.28
420.12,1.28
424.32,1.28
428.56,1.29
432.85,1.31
437.18,1.33
441.55,1.33
445.96,1.34
450.42,1.36
454.93,1.38
459.48,1.37
464.07,1.35
468.71,1.31
473.40,1.32
478.13,1.32
482.91,1.32
487.74,1.28
492.62,1.21
497.55,1.16
502.52,1.17
507.55,1.22
512.62,1.17
517.75,1.12
522.93,1.08
528.16,1.07
533.44,1.03
538.77,0.97
544.16,0.95
549.60,0.91
555.10,0.89
560.65,0.86
566.25,0.78
571.92,0.72
577.64,0.70
583.41,0.67
589.25,0.62
595.14,0.59
601.09,0.56
607.10,0.51
613.17,0.49
619.30,0.43
625.50,0.35
631.75,0.28
638.07,0.27
644.45,0.22
650.89,0.16
657.40,0.13
663.98,0.10
670.62,0.08
677.32,0.03
684.10,-0.04
690.94,-0.11
697.85,-0.09
704.83,-0.12
711.87,-0.18
718.99,-0.23
726.18,-0.28
733.44,-0.32
740.78,-0.34
748.19,-0.37
755.67,-0.40
763.23,-0.43
770.86,-0.45
778.57,-0.46
786.35,-0.46
794.22,-0.48
802.16,-0.50
810.18,-0.52
818.28,-0.53
826.46,-0.54
834.73,-0.54
843.08,-0.53
851.51,-0.51
860.02,-0.50
868.62,-0.50
877.31,-0.50
886.08,-0.48
894.94,-0.46
903.89,-0.43
912.93,-0.40
922.06,-0.37
931.28,-0.34
940.59,-0.31
950.00,-0.26
959.50,-0.19
969.09,-0.17
978.78,-0.13
988.57,-0.05
998.46,-0.01
1008.44,0.04
1018.53,0.08
1028.71,0.11
1039.00,0.18
1049.39,0.25
1059.88,0.32
1070.48,0.37
1081.19,0.43
1092.00,0.49
1102.92,0.57
1113.95,0.62
1125.09,0.67
1136.34,0.73
1147.70,0.73
1159.18,0.78
1170.77,0.85
1182.48,0.94
1194.30,0.96
1206.25,0.99
1218.31,1.06
1230.49,1.08
1242.80,1.10
1255.22,1.17
1267.78,1.25
1280.45,1.30
1293.26,1.35
1306.19,1.40
1319.25,1.44
1332.45,1.54
1345.77,1.61
1359.23,1.65
1372.82,1.72
1386.55,1.78
1400.41,1.82
1414.42,1.90
1428.56,1.97
1442.85,2.05
1457.28,2.14
1471.85,2.25
1486.57,2.35
1501.43,2.45
1516.45,2.52
1531.61,2.62
1546.93,2.74
1562.40,2.84
1578.02,2.94
1593.80,3.04
1609.74,3.16
1625.84,3.29
1642.10,3.44
1658.52,3.57
1675.10,3.68
1691.85,3.78
1708.77,3.89
1725.86,4.02
1743.12,4.17
1760.55,4.31
1778.15,4.44
1795.94,4.53
1813.90,4.67
1832.03,4.83
1850.36,4.97
1868.86,5.07
1887.55,5.19
1906.42,5.32
1925.49,5.46
1944.74,5.59
1964.19,5.71
1983.83,5.83
2003.67,5.95
2023.71,6.07
2043.94,6.17
2064.38,6.27
2085.03,6.42
2105.88,6.57
2126.94,6.68
2148.20,6.76
2169.69,6.86
2191.38,6.96
2213.30,7.07
2235.43,7.18
2257.78,7.27
2280.36,7.35
2303.17,7.44
2326.20,7.47
2349.46,7.56
2372.95,7.65
2396.68,7.73
2420.65,7.80
2444.86,7.85
2469.31,7.89
2494.00,7.95
2518.94,8.01
2544.13,8.07
2569.57,8.13
2595.27,8.16
2621.22,8.17
2647.43,8.20
2673.90,8.16
2700.64,8.15
2727.65,8.18
2754.93,8.17
2782.48,8.14
2810.30,8.10
2838.40,8.04
2866.79,8.01
2895.46,8.00
2924.41,7.94
2953.65,7.88
2983.19,7.86
3013.02,7.82
3043.15,7.74
3073.58,7.72
3104.32,7.68
3135.36,7.62
3166.72,7.56
3198.38,7.50
3230.37,7.47
3262.67,7.42
3295.30,7.37
3328.25,7.31
3361.53,7.27
3395.15,7.25
3429.10,7.18
3463.39,7.10
3498.03,7.02
3533.01,6.94
3568.34,6.85
3604.02,6.77
3640.06,6.70
3676.46,6.61
3713.22,6.51
3750.36,6.43
3787.86,6.30
3825.74,6.17
3864.00,6.06
3902.64,5.93
3941.66,5.81
3981.08,5.66
4020.89,5.49
4061.10,5.33
4101.71,5.21
4142.73,5.09
4184.15,4.95
4226.00,4.77
4268.26,4.64
4310.94,4.58
4354.05,4.43
4397.59,4.30
4441.56,4.17
4485.98,4.10
4530.84,3.99
4576.15,3.94
4621.91,3.92
4668.13,3.91
4714.81,3.88
4761.96,3.86
4809.58,3.90
4857.67,3.98
4906.25,4.08
4955.31,4.21
5004.87,4.38
5054.91,4.57
5105.46,4.82
5156.52,5.12
5208.08,5.44
5260.16,5.82
5312.77,6.21
5365.89,6.58
5419.55,7.00
5473.75,7.38
5528.49,7.70
5583.77,7.91
5639.61,7.93
5696.00,7.88
5752.96,7.53
5810.49,7.13
5868.60,6.53
5927.28,5.92
5986.56,5.26
6046.42,4.60
6106.89,3.99
6167.96,3.48
6229.64,3.03
6291.93,2.55
6354.85,2.20
6418.40,1.89
6482.58,1.65
6547.41,1.47
6612.88,1.33
6679.01,1.25
6745.80,1.23
6813.26,1.25
6881.39,1.25
6950.21,1.36
7019.71,1.53
7089.91,1.73
7160.81,1.98
7232.41,2.31
7304.74,2.74
7377.79,3.24
7451.56,3.81
7526.08,4.44
7601.34,5.14
7677.35,5.92
7754.13,6.73
7831.67,7.65
7909.98,8.47
7989.08,9.13
8068.98,9.31
8149.67,9.19
8231.16,8.70
8313.47,7.77
8396.61,6.65
8480.57,5.35
8565.38,4.05
8651.03,2.78
8737.54,1.58
8824.92,0.55
8913.17,-0.41
9002.30,-1.35
9092.32,-2.19
9183.25,-2.97
9275.08,-3.69
9367.83,-4.33
9461.51,-4.92
9556.12,-5.51
9651.68,-6.11
9748.20,-6.75
9845.68,-7.17
9944.14,-7.59
10043.58,-8.00
10144.02,-8.40
10245.46,-8.81
10347.91,-9.18
10451.39,-9.50
10555.91,-9.73
10661.46,-9.97
10768.08,-10.21
10875.76,-10.46
10984.52,-10.67
11094.36,-10.88
11205.31,-11.10
11317.36,-11.26
11430.53,-11.39
11544.84,-11.48
11660.29,-11.55
11776.89,-11.62
11894.66,-11.68
12013.60,-11.74
12133.74,-11.83
12255.08,-11.84
12377.63,-11.75
12501.41,-11.75
12626.42,-11.68
12752.68,-11.52
12880.21,-11.39
13009.01,-11.28
13139.10,-11.17
13270.49,-10.95
13403.20,-10.68
13537.23,-10.42
13672.60,-10.13
13809.33,-9.79
13947.42,-9.40
14086.90,-8.91
14227.77,-8.33
14370.04,-7.72
14513.74,-7.03
14658.88,-6.11
14805.47,-5.13
14953.52,-4.06
15103.06,-2.71
15254.09,-1.23
15406.63,0.60
15560.70,2.11
15716.30,3.14
15873.47,3.33
16032.20,3.04
16192.52,1.77
16354.45,0.16
16517.99,-1.59
16683.17,-2.99
16850.01,-4.15
17018.51,-5.14
17188.69,-6.09
17360.58,-6.59
17534.18,-6.89
17709.53,-7.41
17886.62,-7.75
18065.49,-8.13
18246.14,-8.66
18428.60,-9.09
18612.89,-9.69
18799.02,-10.42
18987.01,-11.26
19176.88,-12.68
19368.65,-36.37
19562.33,-64.21
19757.96,-71.70
19955.54,-79.18
