frequency,raw
20.00,8.81
20.20,9.02
20.40,9.23
20.61,9.43
20.81,9.62
21.02,9.80
21.23,9.97
21.44,10.14
21.66,10.29
21.87,10.45
22.09,10.59
22.31,10.73
22.54,10.85
22.76,10.96
22.99,11.06
23.22,11.14
23.45,11.21
23.69,11.27
23.92,11.33
24.16,11.39
24.40,11.45
24.65,11.52
24.89,11.59
25.14,11.65
25.39,11.71
25.65,11.76
25.91,11.80
26.16,11.82
26.43,11.84
26.69,11.85
26.96,11.87
27.23,11.88
27.50,11.90
27.77,11.92
28.05,11.94
28.33,11.96
28.62,11.97
28.90,11.99
29.19,11.99
29.48,12.00
29.78,12.01
30.08,12.02
30.38,12.03
30.68,12.03
30.99,12.02
31.30,12.02
31.61,12.00
31.93,11.99
32.24,11.97
32.57,11.96
32.89,11.95
33.22,11.94
33.55,11.93
33.89,11.93
34.23,11.92
34.57,11.92
34.92,11.91
35.27,11.90
35.62,11.88
35.97,11.87
36.33,11.85
36.70,11.83
37.06,11.81
37.43,11.79
37.81,11.77
38.19,11.74
38.57,11.71
38.95,11.68
39.34,11.64
39.74,11.60
40.14,11.57
40.54,11.53
40.94,11.49
41.35,11.45
41.76,11.41
42.18,11.37
42.60,11.34
43.03,11.30
43.46,11.27
43.90,11.23
44.33,11.20
44.78,11.17
45.23,11.14
45.68,11.11
46.13,11.08
46.60,11.06
47.06,11.03
47.53,11.01
48.01,10.98
48.49,10.96
48.97,10.96
49.46,10.95
49.96,10.94
50.46,10.88
50.96,10.81
51.47,10.73
51.99,10.64
52.51,10.57
53.03,10.50
53.56,10.43
54.10,10.37
54.64,10.32
55.18,10.27
55.74,10.22
56.29,10.18
56.86,10.14
57.42,10.09
58.00,10.05
58.58,10.01
59.16,9.96
59.76,9.91
60.35,9.86
60.96,9.81
61.57,9.76
62.18,9.72
62.80,9.67
63.43,9.63
64.07,9.58
64.71,9.53
65.35,9.49
66.01,9.44
66.67,9.39
67.33,9.34
68.01,9.29
68.69,9.24
69.37,9.19
70.07,9.13
70.77,9.08
71.48,9.04
72.19,8.99
72.91,8.94
73.64,8.88
74.38,8.83
75.12,8.78
75.87,8.73
76.63,8.68
77.40,8.63
78.17,8.58
78.95,8.53
79.74,8.49
80.54,8.44
81.35,8.39
82.16,8.33
82.98,8.28
83.81,8.23
84.65,8.18
85.50,8.13
86.35,8.08
87.22,8.03
88.09,7.97
88.97,7.92
89.86,7.87
90.76,7.81
91.66,7.76
92.58,7.70
93.51,7.64
94.44,7.58
95.39,7.52
96.34,7.46
97.30,7.39
98.28,7.32
99.26,7.25
100.25,7.20
101.25,7.15
102.27,7.10
103.29,7.05
104.32,7.00
105.37,6.94
106.42,6.88
107.48,6.81
108.56,6.74
109.64,6.67
110.74,6.60
111.85,6.53
112.97,6.46
114.10,6.39
115.24,6.33
116.39,6.25
117.55,6.18
118.73,6.10
119.92,6.02
121.12,5.94
122.33,5.86
123.55,5.78
124.79,5.70
126.03,5.62
127.29,5.53
128.57,5.44
129.85,5.35
131.15,5.25
132.46,5.15
133.79,5.04
135.12,4.92
136.48,4.80
137.84,4.67
139.22,4.55
140.61,4.44
142.02,4.32
143.44,4.21
144.87,4.11
146.32,4.02
147.78,3.94
149.26,3.88
150.75,3.83
152.26,3.79
153.78,3.75
155.32,3.71
156.88,3.65
158.44,3.59
160.03,3.52
161.63,3.45
163.24,3.38
164.88,3.30
166.53,3.22
168.19,3.14
169.87,3.06
171.57,2.97
173.29,2.89
175.02,2.81
176.77,2.73
178.54,2.64
180.32,2.56
182.13,2.48
183.95,2.40
185.79,2.31
187.65,2.23
189.52,2.15
191.42,2.07
193.33,1.99
195.27,1.91
197.22,1.83
199.19,1.76
201.18,1.68
203.19,1.61
205.23,1.54
207.28,1.47
209.35,1.40
211.44,1.34
213.56,1.28
215.69,1.22
217.85,1.16
220.03,1.11
222.23,1.06
224.45,1.01
226.70,0.96
228.96,0.91
231.25,0.86
233.57,0.82
235.90,0.77
238.26,0.72
240.64,0.67
243.05,0.63
245.48,0.58
247.93,0.53
250.41,0.49
252.92,0.46
255.45,0.43
258.00,0.40
260.58,0.37
263.19,0.34
265.82,0.32
268.48,0.29
271.16,0.26
273.87,0.23
276.61,0.20
279.38,0.17
282.17,0.14
284.99,0.11
287.84,0.07
290.72,0.04
293.63,0.01
296.57,-0.03
299.53,-0.06
302.53,-0.09
305.55,-0.12
308.61,-0.15
311.69,-0.18
314.81,-0.21
317.96,-0.24
321.14,-0.27
324.35,-0.30
327.59,-0.34
330.87,-0.37
334.18,-0.41
337.52,-0.44
340.90,-0.47
344.30,-0.50
347.75,-0.53
351.23,-0.56
354.74,-0.59
358.28,-0.63
361.87,-0.66
365.49,-0.69
369.14,-0.70
372.83,-0.71
376.56,-0.72
380.33,-0.73
384.13,-0.74
387.97,-0.75
391.85,-0.77
395.77,-0.78
399.73,-0.80
403.72,-0.81
407.76,-0.82
411.84,-0.82
415.96,-0.83
420.12,-0.83
424.32,-0.83
428.56,-0.83
432.85,-0.83
437.18,-0.83
441.55,-0.82
445.96,-0.81
450.42,-0.81
454.93,-0.82
459.48,-0.83
464.07,-0.85
468.71,-0.85
473.40,-0.86
478.13,-0.86
482.91,-0.85
487.74,-0.85
492.62,-0.84
497.55,-0.84
502.52,-0.83
507.55,-0.83
512.62,-0.82
517.75,-0.82
522.93,-0.81
528.16,-0.80
533.44,-0.80
538.77,-0.79
544.16,-0.79
549.60,-0.79
555.10,-0.79
560.65,-0.79
566.25,-0.79
571.92,-0.79
577.64,-0.79
583.41,-0.79
589.25,-0.79
595.14,-0.79
601.09,-0.78
607.10,-0.78
613.17,-0.78
619.30,-0.78
625.50,-0.79
631.75,-0.79
638.07,-0.79
644.45,-0.79
650.89,-0.79
657.40,-0.79
663.98,-0.79
670.62,-0.79
677.32,-0.79
684.10,-0.80
690.94,-0.80
697.85,-0.80
704.83,-0.80
711.87,-0.80
718.99,-0.80
726.18,-0.80
733.44,-0.80
740.78,-0.80
748.19,-0.79
755.67,-0.79
763.23,-0.79
770.86,-0.78
778.57,-0.78
786.35,-0.77
794.22,-0.76
802.16,-0.75
810.18,-0.74
818.28,-0.73
826.46,-0.72
834.73,-0.71
843.08,-0.69
851.51,-0.67
860.02,-0.65
868.62,-0.63
877.31,-0.60
886.08,-0.58
894.94,-0.55
903.89,-0.51
912.93,-0.48
922.06,-0.44
931.28,-0.40
940.59,-0.35
950.00,-0.30
959.50,-0.25
969.09,-0.19
978.78,-0.13
988.57,-0.07
998.46,-0.01
1008.44,0.05
1018.53,0.12
1028.71,0.19
1039.00,0.26
1049.39,0.33
1059.88,0.41
1070.48,0.49
1081.19,0.57
1092.00,0.66
1102.92,0.74
1113.95,0.83
1125.09,0.91
1136.34,1.00
1147.70,1.09
1159.18,1.17
1170.77,1.25
1182.48,1.33
1194.30,1.41
1206.25,1.49
1218.31,1.57
1230.49,1.65
1242.80,1.72
1255.22,1.81
1267.78,1.89
1280.45,1.97
1293.26,2.05
1306.19,2.13
1319.25,2.22
1332.45,2.30
1345.77,2.38
1359.23,2.47
1372.82,2.55
1386.55,2.63
1400.41,2.71
1414.42,2.79
1428.56,2.87
1442.85,2.96
1457.28,3.04
1471.85,3.12
1486.57,3.20
1501.43,3.28
1516.45,3.37
1531.61,3.45
1546.93,3.54
1562.40,3.63
1578.02,3.72
1593.80,3.82
1609.74,3.91
1625.84,4.01
1642.10,4.11
1658.52,4.22
1675.10,4.33
1691.85,4.44
1708.77,4.55
1725.86,4.67
1743.12,4.79
1760.55,4.92
1778.15,5.05
1795.94,5.19
1813.90,5.33
1832.03,5.47
1850.36,5.62
1868.86,5.78
1887.55,5.93
1906.42,6.10
1925.49,6.26
1944.74,6.43
1964.19,6.61
1983.83,6.78
2003.67,6.95
2023.71,7.13
2043.94,7.30
2064.38,7.47
2085.03,7.63
2105.88,7.79
2126.94,7.95
2148.20,8.09
2169.69,8.22
2191.38,8.35
2213.30,8.45
2235.43,8.55
2257.78,8.63
2280.36,8.69
2303.17,8.74
2326.20,8.76
2349.46,8.77
2372.95,8.77
2396.68,8.75
2420.65,8.71
2444.86,8.65
2469.31,8.59
2494.00,8.52
2518.94,8.43
2544.13,8.34
2569.57,8.24
2595.27,8.14
2621.22,8.03
2647.43,7.92
2673.90,7.80
2700.64,7.68
2727.65,7.56
2754.93,7.43
2782.48,7.30
2810.30,7.17
2838.40,7.04
2866.79,6.90
2895.46,6.76
2924.41,6.62
2953.65,6.47
2983.19,6.32
3013.02,6.17
3043.15,6.01
3073.58,5.85
3104.32,5.68
3135.36,5.52
3166.72,5.35
3198.38,5.18
3230.37,5.01
3262.67,4.86
3295.30,4.71
3328.25,4.58
3361.53,4.47
3395.15,4.38
3429.10,4.33
3463.39,4.31
3498.03,4.32
3533.01,4.38
3568.34,4.47
3604.02,4.60
3640.06,4.77
3676.46,4.97
3713.22,5.20
3750.36,5.45
3787.86,5.74
3825.74,6.04
3864.00,6.36
3902.64,6.69
3941.66,7.03
3981.08,7.36
4020.89,7.68
4061.10,7.98
4101.71,8.19
4142.73,8.34
4184.15,8.41
4226.00,8.34
4268.26,8.21
4310.94,7.98
4354.05,7.67
4397.59,7.33
4441.56,6.98
4485.98,6.66
4530.84,6.37
4576.15,6.15
4621.91,5.95
4668.13,5.83
4714.81,5.75
4761.96,5.70
4809.58,5.68
4857.67,5.69
4906.25,5.72
4955.31,5.77
5004.87,5.82
5054.91,5.89
5105.46,5.95
5156.52,6.02
5208.08,6.09
5260.16,6.14
5312.77,6.19
5365.89,6.23
5419.55,6.24
5473.75,6.25
5528.49,6.25
5583.77,6.23
5639.61,6.21
5696.00,6.18
5752.96,6.14
5810.49,6.10
5868.60,6.06
5927.28,6.02
5986.56,5.98
6046.42,5.95
6106.89,5.92
6167.96,5.91
6229.64,5.91
6291.93,5.93
6354.85,5.98
6418.40,6.04
6482.58,6.13
6547.41,6.24
6612.88,6.37
6679.01,6.53
6745.80,6.74
6813.26,6.97
6881.39,7.25
6950.21,7.58
7019.71,7.97
7089.91,8.41
7160.81,8.93
7232.41,9.50
7304.74,10.12
7377.79,10.81
7451.56,11.54
7526.08,12.26
7601.34,12.98
7677.35,13.60
7754.13,14.17
7831.67,14.49
7909.98,14.69
7989.08,14.69
8068.98,14.43
8149.67,14.04
8231.16,13.50
8313.47,12.84
8396.61,12.16
8480.57,11.44
8565.38,10.77
8651.03,10.14
8737.54,9.56
8824.92,9.07
8913.17,8.67
9002.30,8.30
9092.32,8.03
9183.25,7.82
9275.08,7.65
9367.83,7.54
9461.51,7.48
9556.12,7.45
9651.68,7.45
9748.20,7.47
9845.68,7.50
9944.14,7.52
10043.58,7.53
10144.02,7.51
10245.46,7.44
10347.91,7.31
10451.39,7.13
10555.91,6.85
10661.46,6.51
10768.08,6.10
10875.76,5.62
10984.52,5.08
11094.36,4.51
11205.31,3.90
11317.36,3.28
11430.53,2.66
11544.84,2.06
11660.29,1.47
11776.89,0.89
11894.66,0.38
12013.60,-0.12
12133.74,-0.57
12255.08,-0.96
12377.63,-1.32
12501.41,-1.62
12626.42,-1.86
12752.68,-2.03
12880.21,-2.07
13009.01,-2.06
13139.10,-2.05
13270.49,-1.83
13403.20,-1.53
13537.23,-1.03
13672.60,-0.39
13809.33,0.38
13947.42,1.36
14086.90,2.38
14227.77,3.43
14370.04,4.35
14513.74,5.08
14658.88,5.28
14805.47,5.19
14953.52,4.64
15103.06,3.77
15254.09,2.76
15406.63,1.72
15560.70,0.79
15716.30,0.01
15873.47,-0.45
16032.20,-0.74
16192.52,-0.72
16354.45,-0.53
16517.99,-0.24
16683.17,0.11
16850.01,0.41
17018.51,0.66
17188.69,0.77
17360.58,0.78
17534.18,0.70
17709.53,0.50
17886.62,0.15
18065.49,-0.33
18246.14,-0.98
18428.60,-1.96
18612.89,-3.15
18799.02,-4.56
18987.01,-6.17
19176.88,-7.96
19368.65,-9.82
19562.33,-11.69
19757.96,-13.47
19955.54,-14.68
