frequency,raw
20.00,11.33
20.20,11.31
20.40,11.28
20.61,11.26
20.81,11.24
21.02,11.22
21.23,11.21
21.44,11.20
21.66,11.20
21.87,11.20
22.09,11.21
22.31,11.21
22.54,11.22
22.76,11.22
22.99,11.22
23.22,11.21
23.45,11.19
23.69,11.16
23.92,11.13
24.16,11.11
24.40,11.08
24.65,11.06
24.89,11.05
25.14,11.03
25.39,11.02
25.65,11.00
25.91,10.98
26.16,10.96
26.43,10.94
26.69,10.92
26.96,10.91
27.23,10.90
27.50,10.88
27.77,10.87
28.05,10.85
28.33,10.83
28.62,10.81
28.90,10.79
29.19,10.77
29.48,10.76
29.78,10.75
30.08,10.74
30.38,10.73
30.68,10.71
30.99,10.69
31.30,10.67
31.61,10.65
31.93,10.63
32.24,10.60
32.57,10.57
32.89,10.54
33.22,10.51
33.55,10.48
33.89,10.45
34.23,10.43
34.57,10.41
34.92,10.38
35.27,10.34
35.62,10.31
35.97,10.28
36.33,10.26
36.70,10.24
37.06,10.22
37.43,10.20
37.81,10.17
38.19,10.14
38.57,10.12
38.95,10.10
39.34,10.08
39.74,10.05
40.14,10.03
40.54,10.01
40.94,9.98
41.35,9.96
41.76,9.93
42.18,9.91
42.60,9.88
43.03,9.85
43.46,9.83
43.90,9.80
44.33,9.78
44.78,9.76
45.23,9.73
45.68,9.70
46.13,9.68
46.60,9.67
47.06,9.66
47.53,9.63
48.01,9.58
48.49,9.55
48.97,9.55
49.46,9.58
49.96,9.61
50.46,9.57
50.96,9.50
51.47,9.42
51.99,9.38
52.51,9.36
53.03,9.34
53.56,9.30
54.10,9.28
54.64,9.27
55.18,9.27
55.74,9.24
56.29,9.22
56.86,9.19
57.42,9.17
58.00,9.16
58.58,9.14
59.16,9.13
59.76,9.11
60.35,9.10
60.96,9.08
61.57,9.04
62.18,9.01
62.80,9.01
63.43,8.99
64.07,8.97
64.71,8.95
65.35,8.94
66.01,8.92
66.67,8.90
67.33,8.89
68.01,8.90
68.69,8.87
69.37,8.84
70.07,8.83
70.77,8.80
71.48,8.79
72.19,8.79
72.91,8.74
73.64,8.73
74.38,8.72
75.12,8.71
75.87,8.66
76.63,8.64
77.40,8.65
78.17,8.61
78.95,8.57
79.74,8.55
80.54,8.51
81.35,8.47
82.16,8.45
82.98,8.40
83.81,8.35
84.65,8.30
85.50,8.23
86.35,8.16
87.22,8.12
88.09,8.01
88.97,7.88
89.86,7.76
90.76,7.60
91.66,7.44
92.58,7.28
93.51,7.05
94.44,6.77
95.39,6.67
96.34,6.88
97.30,7.07
98.28,7.55
99.26,8.08
100.25,8.59
101.25,9.05
102.27,9.30
103.29,9.42
104.32,9.38
105.37,9.45
106.42,9.42
107.48,9.25
108.56,9.22
109.64,9.11
110.74,8.95
111.85,8.79
112.97,8.66
114.10,8.55
115.24,8.44
116.39,8.32
117.55,8.20
118.73,8.06
119.92,7.91
121.12,7.78
122.33,7.67
123.55,7.56
124.79,7.40
126.03,7.29
127.29,7.17
128.57,7.03
129.85,6.89
131.15,6.76
132.46,6.63
133.79,6.51
135.12,6.38
136.48,6.25
137.84,6.11
139.22,5.97
140.61,5.84
142.02,5.71
143.44,5.58
144.87,5.45
146.32,5.32
147.78,5.18
149.26,5.01
150.75,4.85
152.26,4.69
153.78,4.56
155.32,4.43
156.88,4.29
158.44,4.15
160.03,4.01
161.63,3.85
163.24,3.70
164.88,3.54
166.53,3.39
168.19,3.24
169.87,3.08
171.57,2.91
173.29,2.74
175.02,2.57
176.77,2.40
178.54,2.22
180.32,2.05
182.13,1.87
183.95,1.69
185.79,1.51
187.65,1.34
189.52,1.17
191.42,1.02
193.33,0.86
195.27,0.70
197.22,0.57
199.19,0.49
201.18,0.44
203.19,0.41
205.23,0.40
207.28,0.39
209.35,0.40
211.44,0.41
213.56,0.38
215.69,0.40
217.85,0.43
220.03,0.44
222.23,0.43
224.45,0.42
226.70,0.36
228.96,0.35
231.25,0.33
233.57,0.30
235.90,0.31
238.26,0.41
240.64,0.50
243.05,0.57
245.48,0.67
247.93,0.75
250.41,0.77
252.92,0.77
255.45,0.74
258.00,0.70
260.58,0.66
263.19,0.62
265.82,0.59
268.48,0.55
271.16,0.50
273.87,0.46
276.61,0.42
279.38,0.38
282.17,0.34
284.99,0.31
287.84,0.26
290.72,0.22
293.63,0.18
296.57,0.15
299.53,0.12
302.53,0.08
305.55,0.04
308.61,-0.00
311.69,-0.03
314.81,-0.07
317.96,-0.10
321.14,-0.14
324.35,-0.17
327.59,-0.21
330.87,-0.25
334.18,-0.29
337.52,-0.33
340.90,-0.37
344.30,-0.38
347.75,-0.43
351.23,-0.47
354.74,-0.47
358.28,-0.50
361.87,-0.54
365.49,-0.57
369.14,-0.60
372.83,-0.63
376.56,-0.65
380.33,-0.68
384.13,-0.71
387.97,-0.74
391.85,-0.77
395.77,-0.79
399.73,-0.81
403.72,-0.83
407.76,-0.85
411.84,-0.88
415.96,-0.90
420.12,-0.92
424.32,-0.94
428.56,-0.96
432.85,-0.98
437.18,-1.00
441.55,-1.02
445.96,-1.03
450.42,-1.04
454.93,-1.09
459.48,-1.10
464.07,-1.11
468.71,-1.13
473.40,-1.14
478.13,-1.15
482.91,-1.16
487.74,-1.17
492.62,-1.18
497.55,-1.19
502.52,-1.20
507.55,-1.20
512.62,-1.21
517.75,-1.22
522.93,-1.22
528.16,-1.22
533.44,-1.22
538.77,-1.21
544.16,-1.21
549.60,-1.21
555.10,-1.20
560.65,-1.19
566.25,-1.19
571.92,-1.18
577.64,-1.16
583.41,-1.14
589.25,-1.11
595.14,-1.09
601.09,-1.07
607.10,-1.04
613.17,-1.01
619.30,-0.97
625.50,-0.93
631.75,-0.89
638.07,-0.83
644.45,-0.77
650.89,-0.71
657.40,-0.68
663.98,-0.65
670.62,-0.60
677.32,-0.57
684.10,-0.53
690.94,-0.51
697.85,-0.50
704.83,-0.49
711.87,-0.49
718.99,-0.49
726.18,-0.51
733.44,-0.53
740.78,-0.56
748.19,-0.59
755.67,-0.64
763.23,-0.69
770.86,-0.75
778.57,-0.79
786.35,-0.82
794.22,-0.83
802.16,-0.82
810.18,-0.81
818.28,-0.79
826.46,-0.77
834.73,-0.75
843.08,-0.74
851.51,-0.72
860.02,-0.69
868.62,-0.65
877.31,-0.62
886.08,-0.58
894.94,-0.55
903.89,-0.51
912.93,-0.45
922.06,-0.39
931.28,-0.33
940.59,-0.27
950.00,-0.19
959.50,-0.13
969.09,-0.08
978.78,-0.04
988.57,-0.02
998.46,-0.01
1008.44,0.05
1018.53,0.12
1028.71,0.20
1039.00,0.28
1049.39,0.37
1059.88,0.46
1070.48,0.56
1081.19,0.65
1092.00,0.74
1102.92,0.84
1113.95,0.92
1125.09,1.00
1136.34,1.09
1147.70,1.20
1159.18,1.28
1170.77,1.35
1182.48,1.44
1194.30,1.52
1206.25,1.61
1218.31,1.67
1230.49,1.75
1242.80,1.82
1255.22,1.89
1267.78,1.96
1280.45,2.02
1293.26,2.08
1306.19,2.13
1319.25,2.18
1332.45,2.24
1345.77,2.29
1359.23,2.34
1372.82,2.37
1386.55,2.40
1400.41,2.44
1414.42,2.44
1428.56,2.45
1442.85,2.44
1457.28,2.43
1471.85,2.42
1486.57,2.38
1501.43,2.33
1516.45,2.25
1531.61,2.15
1546.93,2.03
1562.40,1.89
1578.02,1.75
1593.80,1.58
1609.74,1.38
1625.84,1.16
1642.10,0.97
1658.52,0.80
1675.10,0.67
1691.85,0.65
1708.77,0.69
1725.86,0.80
1743.12,1.01
1760.55,1.24
1778.15,1.49
1795.94,1.74
1813.90,1.97
1832.03,2.18
1850.36,2.37
1868.86,2.53
1887.55,2.66
1906.42,2.76
1925.49,2.81
1944.74,2.86
1964.19,2.88
1983.83,2.88
2003.67,2.87
2023.71,2.83
2043.94,2.80
2064.38,2.77
2085.03,2.74
2105.88,2.72
2126.94,2.71
2148.20,2.72
2169.69,2.75
2191.38,2.81
2213.30,2.92
2235.43,3.03
2257.78,3.19
2280.36,3.37
2303.17,3.56
2326.20,3.76
2349.46,3.97
2372.95,4.18
2396.68,4.39
2420.65,4.59
2444.86,4.79
2469.31,5.00
2494.00,5.19
2518.94,5.36
2544.13,5.53
2569.57,5.71
2595.27,5.88
2621.22,6.06
2647.43,6.23
2673.90,6.40
2700.64,6.55
2727.65,6.70
2754.93,6.83
2782.48,6.96
2810.30,7.08
2838.40,7.21
2866.79,7.32
2895.46,7.44
2924.41,7.55
2953.65,7.67
2983.19,7.78
3013.02,7.89
3043.15,8.00
3073.58,8.12
3104.32,8.22
3135.36,8.30
3166.72,8.36
3198.38,8.40
3230.37,8.43
3262.67,8.44
3295.30,8.42
3328.25,8.39
3361.53,8.35
3395.15,8.29
3429.10,8.21
3463.39,8.11
3498.03,8.02
3533.01,7.91
3568.34,7.80
3604.02,7.70
3640.06,7.59
3676.46,7.48
3713.22,7.38
3750.36,7.29
3787.86,7.19
3825.74,7.08
3864.00,6.99
3902.64,6.90
3941.66,6.81
3981.08,6.72
4020.89,6.63
4061.10,6.54
4101.71,6.44
4142.73,6.37
4184.15,6.30
4226.00,6.21
4268.26,6.14
4310.94,6.08
4354.05,6.00
4397.59,5.89
4441.56,5.78
4485.98,5.63
4530.84,5.47
4576.15,5.31
4621.91,5.16
4668.13,5.01
4714.81,4.86
4761.96,4.74
4809.58,4.66
4857.67,4.61
4906.25,4.62
4955.31,4.65
5004.87,4.70
5054.91,4.80
5105.46,4.89
5156.52,4.95
5208.08,4.99
5260.16,4.97
5312.77,4.93
5365.89,4.90
5419.55,4.79
5473.75,4.67
5528.49,4.54
5583.77,4.36
5639.61,4.18
5696.00,4.01
5752.96,3.76
5810.49,3.55
5868.60,3.51
5927.28,3.44
5986.56,3.32
6046.42,3.21
6106.89,3.10
6167.96,3.02
6229.64,2.96
6291.93,2.85
6354.85,2.80
6418.40,2.76
6482.58,2.72
6547.41,2.76
6612.88,2.84
6679.01,2.94
6745.80,3.06
6813.26,3.22
6881.39,3.46
6950.21,3.75
7019.71,4.07
7089.91,4.42
7160.81,4.86
7232.41,5.32
7304.74,5.79
7377.79,6.47
7451.56,7.12
7526.08,7.84
7601.34,8.73
7677.35,9.61
7754.13,10.46
7831.67,10.97
7909.98,11.25
7989.08,11.16
8068.98,10.44
8149.67,9.48
8231.16,8.29
8313.47,7.09
8396.61,5.90
8480.57,4.75
8565.38,3.72
8651.03,2.76
8737.54,1.86
8824.92,1.28
8913.17,0.66
9002.30,0.01
9092.32,-0.53
9183.25,-0.96
9275.08,-1.37
9367.83,-1.80
9461.51,-2.03
9556.12,-2.25
9651.68,-2.39
9748.20,-2.36
9845.68,-2.32
9944.14,-2.08
10043.58,-1.79
10144.02,-1.54
10245.46,-1.02
10347.91,-0.51
10451.39,-0.05
10555.91,0.12
10661.46,0.36
10768.08,0.54
10875.76,0.27
10984.52,0.20
11094.36,0.24
11205.31,0.46
11317.36,0.79
11430.53,1.14
11544.84,1.61
11660.29,2.17
11776.89,2.58
11894.66,2.88
12013.60,3.20
12133.74,3.40
12255.08,3.24
12377.63,2.75
12501.41,2.47
12626.42,1.09
12752.68,0.23
12880.21,-0.68
13009.01,-1.67
13139.10,-2.67
13270.49,-2.87
13403.20,-3.49
13537.23,-4.28
13672.60,-5.04
13809.33,-5.72
13947.42,-5.74
14086.90,-6.06
14227.77,-6.58
14370.04,-7.04
14513.74,-7.41
14658.88,-7.50
14805.47,-7.74
14953.52,-8.24
15103.06,-8.20
15254.09,-7.91
15406.63,-7.52
15560.70,-6.65
15716.30,-5.02
15873.47,-4.98
16032.20,-5.62
16192.52,-7.27
16354.45,-8.19
16517.99,-8.81
16683.17,-10.36
16850.01,-11.19
17018.51,-11.77
17188.69,-14.30
17360.58,-16.29
17534.18,-17.50
17709.53,-16.70
17886.62,-16.18
18065.49,-16.00
18246.14,-16.28
18428.60,-16.60
18612.89,-18.06
18799.02,-20.03
18987.01,-21.43
19176.88,-22.71
19368.65,-24.75
19562.33,-27.49
19757.96,-30.72
19955.54,-33.95
