frequency,raw
20.00,18.21
20.20,17.85
20.40,17.38
20.61,16.82
20.81,16.26
21.02,15.77
21.23,15.33
21.44,14.87
21.66,14.29
21.87,13.65
22.09,12.90
22.31,12.15
22.54,11.64
22.76,11.39
22.99,11.43
23.22,11.62
23.45,11.82
23.69,11.98
23.92,12.08
24.16,12.10
24.40,12.06
24.65,11.99
24.89,11.96
25.14,12.00
25.39,12.07
25.65,12.19
25.91,12.30
26.16,12.40
26.43,12.45
26.69,12.45
26.96,12.43
27.23,12.39
27.50,12.36
27.77,12.33
28.05,12.30
28.33,12.26
28.62,12.20
28.90,12.12
29.19,12.01
29.48,11.90
29.78,11.78
30.08,11.67
30.38,11.56
30.68,11.46
30.99,11.37
31.30,11.28
31.61,11.21
31.93,11.16
32.24,11.13
32.57,11.10
32.89,11.08
33.22,11.07
33.55,11.07
33.89,11.06
34.23,11.06
34.57,11.06
34.92,11.05
35.27,11.03
35.62,11.00
35.97,10.96
36.33,10.91
36.70,10.85
37.06,10.78
37.43,10.71
37.81,10.63
38.19,10.56
38.57,10.48
38.95,10.40
39.34,10.32
39.74,10.25
40.14,10.19
40.54,10.14
40.94,10.10
41.35,10.06
41.76,10.03
42.18,10.00
42.60,9.97
43.03,9.94
43.46,9.91
43.90,9.87
44.33,9.83
44.78,9.78
45.23,9.73
45.68,9.67
46.13,9.60
46.60,9.54
47.06,9.47
47.53,9.40
48.01,9.33
48.49,9.26
48.97,9.20
49.46,9.16
49.96,9.13
50.46,9.12
50.96,9.11
51.47,9.09
51.99,9.07
52.51,9.04
53.03,9.00
53.56,8.95
54.10,8.90
54.64,8.85
55.18,8.80
55.74,8.76
56.29,8.72
56.86,8.68
57.42,8.63
58.00,8.58
58.58,8.53
59.16,8.48
59.76,8.43
60.35,8.38
60.96,8.33
61.57,8.29
62.18,8.25
62.80,8.19
63.43,8.12
64.07,8.04
64.71,7.94
65.35,7.83
66.01,7.71
66.67,7.58
67.33,7.45
68.01,7.31
68.69,7.17
69.37,7.02
70.07,6.86
70.77,6.71
71.48,6.59
72.19,6.49
72.91,6.44
73.64,6.47
74.38,6.57
75.12,6.73
75.87,6.93
76.63,7.13
77.40,7.31
78.17,7.45
78.95,7.57
79.74,7.65
80.54,7.73
81.35,7.78
82.16,7.82
82.98,7.85
83.81,7.87
84.65,7.87
85.50,7.86
86.35,7.84
87.22,7.82
88.09,7.78
88.97,7.75
89.86,7.71
90.76,7.67
91.66,7.63
92.58,7.59
93.51,7.55
94.44,7.51
95.39,7.48
96.34,7.44
97.30,7.40
98.28,7.36
99.26,7.33
100.25,7.29
101.25,7.26
102.27,7.21
103.29,7.17
104.32,7.12
105.37,7.07
106.42,7.02
107.48,6.98
108.56,6.93
109.64,6.89
110.74,6.84
111.85,6.79
112.97,6.73
114.10,6.68
115.24,6.62
116.39,6.56
117.55,6.50
118.73,6.45
119.92,6.39
121.12,6.34
122.33,6.30
123.55,6.25
124.79,6.20
126.03,6.14
127.29,6.07
128.57,6.01
129.85,5.94
131.15,5.88
132.46,5.81
133.79,5.75
135.12,5.70
136.48,5.64
137.84,5.58
139.22,5.53
140.61,5.47
142.02,5.41
143.44,5.35
144.87,5.30
146.32,5.27
147.78,5.24
149.26,5.20
150.75,5.13
152.26,5.05
153.78,4.95
155.32,4.86
156.88,4.78
158.44,4.71
160.03,4.65
161.63,4.60
163.24,4.55
164.88,4.50
166.53,4.44
168.19,4.39
169.87,4.34
171.57,4.28
173.29,4.24
175.02,4.19
176.77,4.15
178.54,4.10
180.32,4.06
182.13,4.01
183.95,3.97
185.79,3.92
187.65,3.87
189.52,3.83
191.42,3.79
193.33,3.75
195.27,3.73
197.22,3.71
199.19,3.69
201.18,3.67
203.19,3.66
205.23,3.65
207.28,3.65
209.35,3.65
211.44,3.66
213.56,3.67
215.69,3.68
217.85,3.68
220.03,3.70
222.23,3.71
224.45,3.73
226.70,3.74
228.96,3.75
231.25,3.77
233.57,3.79
235.90,3.81
238.26,3.85
240.64,3.88
243.05,3.91
245.48,3.94
247.93,3.98
250.41,4.01
252.92,4.03
255.45,4.05
258.00,4.08
260.58,4.12
263.19,4.16
265.82,4.20
268.48,4.24
271.16,4.28
273.87,4.31
276.61,4.34
279.38,4.38
282.17,4.42
284.99,4.45
287.84,4.49
290.72,4.53
293.63,4.57
296.57,4.61
299.53,4.64
302.53,4.67
305.55,4.70
308.61,4.74
311.69,4.77
314.81,4.80
317.96,4.83
321.14,4.87
324.35,4.90
327.59,4.93
330.87,4.96
334.18,4.99
337.52,5.03
340.90,5.07
344.30,5.11
347.75,5.14
351.23,5.17
354.74,5.19
358.28,5.20
361.87,5.22
365.49,5.24
369.14,5.26
372.83,5.28
376.56,5.31
380.33,5.34
384.13,5.37
387.97,5.40
391.85,5.43
395.77,5.46
399.73,5.48
403.72,5.50
407.76,5.52
411.84,5.53
415.96,5.54
420.12,5.56
424.32,5.57
428.56,5.58
432.85,5.59
437.18,5.60
441.55,5.61
445.96,5.61
450.42,5.61
454.93,5.61
459.48,5.61
464.07,5.61
468.71,5.60
473.40,5.60
478.13,5.59
482.91,5.57
487.74,5.56
492.62,5.54
497.55,5.53
502.52,5.51
507.55,5.49
512.62,5.46
517.75,5.43
522.93,5.40
528.16,5.36
533.44,5.32
538.77,5.27
544.16,5.22
549.60,5.16
555.10,5.10
560.65,5.04
566.25,4.98
571.92,4.93
577.64,4.87
583.41,4.81
589.25,4.75
595.14,4.70
601.09,4.64
607.10,4.57
613.17,4.50
619.30,4.43
625.50,4.35
631.75,4.27
638.07,4.18
644.45,4.10
650.89,4.01
657.40,3.91
663.98,3.81
670.62,3.71
677.32,3.61
684.10,3.50
690.94,3.39
697.85,3.28
704.83,3.17
711.87,3.07
718.99,2.96
726.18,2.86
733.44,2.75
740.78,2.64
748.19,2.53
755.67,2.42
763.23,2.30
770.86,2.19
778.57,2.08
786.35,1.98
794.22,1.88
802.16,1.78
810.18,1.68
818.28,1.57
826.46,1.47
834.73,1.36
843.08,1.26
851.51,1.16
860.02,1.06
868.62,0.97
877.31,0.88
886.08,0.79
894.94,0.70
903.89,0.62
912.93,0.55
922.06,0.48
931.28,0.41
940.59,0.34
950.00,0.28
959.50,0.22
969.09,0.17
978.78,0.11
988.57,0.06
998.46,0.01
1008.44,-0.04
1018.53,-0.08
1028.71,-0.12
1039.00,-0.15
1049.39,-0.18
1059.88,-0.20
1070.48,-0.23
1081.19,-0.25
1092.00,-0.27
1102.92,-0.28
1113.95,-0.29
1125.09,-0.30
1136.34,-0.30
1147.70,-0.30
1159.18,-0.30
1170.77,-0.29
1182.48,-0.29
1194.30,-0.27
1206.25,-0.26
1218.31,-0.24
1230.49,-0.21
1242.80,-0.17
1255.22,-0.13
1267.78,-0.09
1280.45,-0.04
1293.26,0.02
1306.19,0.08
1319.25,0.14
1332.45,0.22
1345.77,0.29
1359.23,0.38
1372.82,0.47
1386.55,0.58
1400.41,0.69
1414.42,0.81
1428.56,0.93
1442.85,1.06
1457.28,1.20
1471.85,1.34
1486.57,1.49
1501.43,1.64
1516.45,1.80
1531.61,1.95
1546.93,2.11
1562.40,2.27
1578.02,2.43
1593.80,2.59
1609.74,2.75
1625.84,2.91
1642.10,3.07
1658.52,3.23
1675.10,3.39
1691.85,3.55
1708.77,3.70
1725.86,3.85
1743.12,3.99
1760.55,4.13
1778.15,4.26
1795.94,4.39
1813.90,4.51
1832.03,4.64
1850.36,4.76
1868.86,4.88
1887.55,5.00
1906.42,5.11
1925.49,5.22
1944.74,5.34
1964.19,5.45
1983.83,5.57
2003.67,5.69
2023.71,5.80
2043.94,5.92
2064.38,6.04
2085.03,6.15
2105.88,6.26
2126.94,6.37
2148.20,6.48
2169.69,6.60
2191.38,6.71
2213.30,6.83
2235.43,6.95
2257.78,7.07
2280.36,7.19
2303.17,7.31
2326.20,7.43
2349.46,7.56
2372.95,7.69
2396.68,7.82
2420.65,7.95
2444.86,8.07
2469.31,8.19
2494.00,8.30
2518.94,8.42
2544.13,8.54
2569.57,8.67
2595.27,8.81
2621.22,8.96
2647.43,9.12
2673.90,9.30
2700.64,9.48
2727.65,9.67
2754.93,9.87
2782.48,10.08
2810.30,10.29
2838.40,10.50
2866.79,10.71
2895.46,10.92
2924.41,11.12
2953.65,11.32
2983.19,11.49
3013.02,11.66
3043.15,11.82
3073.58,11.96
3104.32,12.09
3135.36,12.21
3166.72,12.31
3198.38,12.41
3230.37,12.48
3262.67,12.54
3295.30,12.59
3328.25,12.61
3361.53,12.62
3395.15,12.63
3429.10,12.61
3463.39,12.58
3498.03,12.54
3533.01,12.49
3568.34,12.42
3604.02,12.34
3640.06,12.25
3676.46,12.15
3713.22,12.05
3750.36,11.93
3787.86,11.81
3825.74,11.68
3864.00,11.54
3902.64,11.40
3941.66,11.26
3981.08,11.11
4020.89,10.97
4061.10,10.83
4101.71,10.69
4142.73,10.56
4184.15,10.44
4226.00,10.33
4268.26,10.23
4310.94,10.14
4354.05,10.07
4397.59,10.01
4441.56,9.95
4485.98,9.90
4530.84,9.87
4576.15,9.86
4621.91,9.86
4668.13,9.88
4714.81,9.91
4761.96,9.96
4809.58,10.03
4857.67,10.11
4906.25,10.21
4955.31,10.32
5004.87,10.44
5054.91,10.58
5105.46,10.72
5156.52,10.85
5208.08,10.98
5260.16,11.10
5312.77,11.19
5365.89,11.26
5419.55,11.29
5473.75,11.29
5528.49,11.25
5583.77,11.17
5639.61,11.03
5696.00,10.87
5752.96,10.64
5810.49,10.39
5868.60,10.09
5927.28,9.78
5986.56,9.45
6046.42,9.11
6106.89,8.78
6167.96,8.46
6229.64,8.17
6291.93,7.92
6354.85,7.72
6418.40,7.56
6482.58,7.45
6547.41,7.41
6612.88,7.42
6679.01,7.51
6745.80,7.68
6813.26,7.91
6881.39,8.23
6950.21,8.63
7019.71,9.09
7089.91,9.61
7160.81,10.17
7232.41,10.74
7304.74,11.32
7377.79,11.88
7451.56,12.39
7526.08,12.84
7601.34,13.21
7677.35,13.42
7754.13,13.57
7831.67,13.43
7909.98,13.17
7989.08,12.71
8068.98,12.01
8149.67,11.21
8231.16,10.28
8313.47,9.32
8396.61,8.36
8480.57,7.45
8565.38,6.67
8651.03,6.00
8737.54,5.43
8824.92,4.94
8913.17,4.43
9002.30,3.91
9092.32,3.23
9183.25,2.45
9275.08,1.61
9367.83,0.71
9461.51,-0.16
9556.12,-0.97
9651.68,-1.69
9748.20,-2.33
9845.68,-2.83
9944.14,-3.26
10043.58,-3.61
10144.02,-3.91
10245.46,-4.13
10347.91,-4.32
10451.39,-4.47
10555.91,-4.57
10661.46,-4.63
10768.08,-4.66
10875.76,-4.65
10984.52,-4.59
11094.36,-4.49
11205.31,-4.35
11317.36,-4.15
11430.53,-3.91
11544.84,-3.61
11660.29,-3.24
11776.89,-2.83
11894.66,-2.26
12013.60,-1.67
12133.74,-0.98
12255.08,-0.20
12377.63,0.64
12501.41,1.49
12626.42,2.31
12752.68,3.08
12880.21,3.82
13009.01,4.55
13139.10,5.27
13270.49,6.18
13403.20,7.15
13537.23,8.31
13672.60,9.47
13809.33,10.64
13947.42,11.62
14086.90,12.26
14227.77,12.70
14370.04,12.80
14513.74,12.51
14658.88,11.74
14805.47,10.87
14953.52,9.82
15103.06,8.77
15254.09,7.74
15406.63,6.93
15560.70,6.22
15716.30,5.68
15873.47,5.27
16032.20,4.85
16192.52,4.34
16354.45,3.45
16517.99,2.26
16683.17,0.27
16850.01,-2.19
17018.51,-5.04
17188.69,-8.38
17360.58,-11.94
17534.18,-15.65
17709.53,-19.45
17886.62,-22.69
18065.49,-25.11
18246.14,-26.37
18428.60,-26.84
18612.89,-27.63
18799.02,-28.82
18987.01,-30.54
19176.88,-32.54
19368.65,-34.46
19562.33,-36.15
19757.96,-37.48
19955.54,-38.16
