frequency,raw
20.00,5.07
20.20,5.11
20.40,5.16
20.61,5.19
20.81,5.23
21.02,5.25
21.23,5.27
21.44,5.29
21.66,5.29
21.87,5.29
22.09,5.30
22.31,5.30
22.54,5.31
22.76,5.32
22.99,5.33
23.22,5.35
23.45,5.37
23.69,5.39
23.92,5.41
24.16,5.43
24.40,5.44
24.65,5.45
24.89,5.47
25.14,5.48
25.39,5.49
25.65,5.50
25.91,5.51
26.16,5.52
26.43,5.52
26.69,5.53
26.96,5.54
27.23,5.55
27.50,5.56
27.77,5.57
28.05,5.58
28.33,5.58
28.62,5.59
28.90,5.59
29.19,5.60
29.48,5.61
29.78,5.62
30.08,5.63
30.38,5.63
30.68,5.63
30.99,5.63
31.30,5.63
31.61,5.63
31.93,5.63
32.24,5.64
32.57,5.64
32.89,5.64
33.22,5.63
33.55,5.63
33.89,5.62
34.23,5.62
34.57,5.62
34.92,5.61
35.27,5.60
35.62,5.59
35.97,5.58
36.33,5.57
36.70,5.57
37.06,5.56
37.43,5.55
37.81,5.54
38.19,5.52
38.57,5.51
38.95,5.49
39.34,5.48
39.74,5.47
40.14,5.45
40.54,5.43
40.94,5.40
41.35,5.38
41.76,5.37
42.18,5.36
42.60,5.35
43.03,5.34
43.46,5.33
43.90,5.32
44.33,5.30
44.78,5.29
45.23,5.27
45.68,5.24
46.13,5.22
46.60,5.19
47.06,5.17
47.53,5.15
48.01,5.12
48.49,5.08
48.97,5.05
49.46,5.01
49.96,4.99
50.46,4.97
50.96,4.94
51.47,4.90
51.99,4.86
52.51,4.83
53.03,4.80
53.56,4.77
54.10,4.74
54.64,4.71
55.18,4.69
55.74,4.66
56.29,4.63
56.86,4.60
57.42,4.57
58.00,4.54
58.58,4.49
59.16,4.45
59.76,4.42
60.35,4.39
60.96,4.36
61.57,4.31
62.18,4.26
62.80,4.23
63.43,4.19
64.07,4.16
64.71,4.11
65.35,4.06
66.01,4.02
66.67,3.98
67.33,3.93
68.01,3.88
68.69,3.83
69.37,3.77
70.07,3.72
70.77,3.68
71.48,3.64
72.19,3.60
72.91,3.55
73.64,3.50
74.38,3.44
75.12,3.39
75.87,3.35
76.63,3.29
77.40,3.24
78.17,3.18
78.95,3.11
79.74,3.04
80.54,2.98
81.35,2.92
82.16,2.85
82.98,2.78
83.81,2.72
84.65,2.63
85.50,2.55
86.35,2.47
87.22,2.38
88.09,2.28
88.97,2.17
89.86,2.06
90.76,1.96
91.66,1.88
92.58,1.83
93.51,1.82
94.44,1.85
95.39,1.88
96.34,1.92
97.30,1.95
98.28,1.97
99.26,1.98
100.25,1.98
101.25,1.92
102.27,1.88
103.29,1.85
104.32,1.82
105.37,1.78
106.42,1.73
107.48,1.69
108.56,1.64
109.64,1.59
110.74,1.56
111.85,1.50
112.97,1.44
114.10,1.40
115.24,1.37
116.39,1.30
117.55,1.25
118.73,1.20
119.92,1.14
121.12,1.08
122.33,1.03
123.55,1.00
124.79,0.96
126.03,0.91
127.29,0.86
128.57,0.81
129.85,0.77
131.15,0.73
132.46,0.68
133.79,0.63
135.12,0.58
136.48,0.54
137.84,0.49
139.22,0.45
140.61,0.41
142.02,0.37
143.44,0.33
144.87,0.28
146.32,0.23
147.78,0.18
149.26,0.14
150.75,0.10
152.26,0.08
153.78,0.04
155.32,-0.00
156.88,-0.04
158.44,-0.08
160.03,-0.12
161.63,-0.15
163.24,-0.17
164.88,-0.21
166.53,-0.24
168.19,-0.27
169.87,-0.30
171.57,-0.31
173.29,-0.33
175.02,-0.35
176.77,-0.37
178.54,-0.39
180.32,-0.41
182.13,-0.42
183.95,-0.45
185.79,-0.47
187.65,-0.49
189.52,-0.51
191.42,-0.53
193.33,-0.55
195.27,-0.57
197.22,-0.60
199.19,-0.63
201.18,-0.64
203.19,-0.65
205.23,-0.68
207.28,-0.70
209.35,-0.72
211.44,-0.72
213.56,-0.72
215.69,-0.70
217.85,-0.67
220.03,-0.67
222.23,-0.67
224.45,-0.67
226.70,-0.66
228.96,-0.65
231.25,-0.65
233.57,-0.64
235.90,-0.63
238.26,-0.63
240.64,-0.63
243.05,-0.62
245.48,-0.63
247.93,-0.65
250.41,-0.68
252.92,-0.61
255.45,-0.58
258.00,-0.58
260.58,-0.59
263.19,-0.59
265.82,-0.58
268.48,-0.56
271.16,-0.55
273.87,-0.54
276.61,-0.53
279.38,-0.52
282.17,-0.50
284.99,-0.49
287.84,-0.48
290.72,-0.47
293.63,-0.45
296.57,-0.43
299.53,-0.41
302.53,-0.40
305.55,-0.39
308.61,-0.37
311.69,-0.35
314.81,-0.33
317.96,-0.32
321.14,-0.30
324.35,-0.28
327.59,-0.26
330.87,-0.24
334.18,-0.21
337.52,-0.19
340.90,-0.16
344.30,-0.14
347.75,-0.11
351.23,-0.09
354.74,-0.07
358.28,-0.04
361.87,-0.01
365.49,0.01
369.14,0.04
372.83,0.06
376.56,0.09
380.33,0.12
384.13,0.15
387.97,0.18
391.85,0.21
395.77,0.24
399.73,0.27
403.72,0.30
407.76,0.33
411.84,0.36
415.96,0.39
420.12,0.42
424.32,0.45
428.56,0.49
432.85,0.52
437.18,0.54
441.55,0.58
445.96,0.61
450.42,0.63
454.93,0.67
459.48,0.70
464.07,0.72
468.71,0.75
473.40,0.77
478.13,0.79
482.91,0.81
487.74,0.82
492.62,0.84
497.55,0.85
502.52,0.86
507.55,0.87
512.62,0.88
517.75,0.88
522.93,0.88
528.16,0.89
533.44,0.89
538.77,0.89
544.16,0.89
549.60,0.88
555.10,0.87
560.65,0.86
566.25,0.85
571.92,0.84
577.64,0.82
583.41,0.81
589.25,0.79
595.14,0.77
601.09,0.75
607.10,0.72
613.17,0.70
619.30,0.67
625.50,0.64
631.75,0.61
638.07,0.59
644.45,0.56
650.89,0.53
657.40,0.50
663.98,0.46
670.62,0.43
677.32,0.40
684.10,0.36
690.94,0.33
697.85,0.29
704.83,0.26
711.87,0.23
718.99,0.20
726.18,0.16
733.44,0.13
740.78,0.10
748.19,0.06
755.67,0.03
763.23,0.01
770.86,-0.02
778.57,-0.04
786.35,-0.07
794.22,-0.09
802.16,-0.11
810.18,-0.14
818.28,-0.16
826.46,-0.18
834.73,-0.20
843.08,-0.21
851.51,-0.22
860.02,-0.23
868.62,-0.24
877.31,-0.25
886.08,-0.25
894.94,-0.24
903.89,-0.24
912.93,-0.23
922.06,-0.22
931.28,-0.20
940.59,-0.19
950.00,-0.17
959.50,-0.14
969.09,-0.11
978.78,-0.08
988.57,-0.04
998.46,-0.01
1008.44,0.03
1018.53,0.07
1028.71,0.11
1039.00,0.15
1049.39,0.20
1059.88,0.25
1070.48,0.29
1081.19,0.34
1092.00,0.40
1102.92,0.46
1113.95,0.51
1125.09,0.57
1136.34,0.63
1147.70,0.69
1159.18,0.75
1170.77,0.80
1182.48,0.86
1194.30,0.92
1206.25,0.98
1218.31,1.04
1230.49,1.10
1242.80,1.15
1255.22,1.22
1267.78,1.28
1280.45,1.35
1293.26,1.42
1306.19,1.48
1319.25,1.54
1332.45,1.61
1345.77,1.67
1359.23,1.74
1372.82,1.80
1386.55,1.87
1400.41,1.93
1414.42,2.00
1428.56,2.06
1442.85,2.14
1457.28,2.21
1471.85,2.30
1486.57,2.39
1501.43,2.49
1516.45,2.60
1531.61,2.70
1546.93,2.81
1562.40,2.92
1578.02,3.03
1593.80,3.14
1609.74,3.25
1625.84,3.35
1642.10,3.46
1658.52,3.56
1675.10,3.66
1691.85,3.76
1708.77,3.86
1725.86,3.96
1743.12,4.06
1760.55,4.16
1778.15,4.26
1795.94,4.36
1813.90,4.46
1832.03,4.55
1850.36,4.63
1868.86,4.64
1887.55,4.73
1906.42,4.82
1925.49,4.86
1944.74,5.02
1964.19,5.17
1983.83,5.31
2003.67,5.44
2023.71,5.55
2043.94,5.67
2064.38,5.78
2085.03,5.89
2105.88,6.00
2126.94,6.11
2148.20,6.22
2169.69,6.33
2191.38,6.43
2213.30,6.53
2235.43,6.62
2257.78,6.70
2280.36,6.78
2303.17,6.86
2326.20,6.94
2349.46,7.01
2372.95,7.08
2396.68,7.15
2420.65,7.21
2444.86,7.27
2469.31,7.32
2494.00,7.37
2518.94,7.41
2544.13,7.45
2569.57,7.48
2595.27,7.50
2621.22,7.52
2647.43,7.54
2673.90,7.54
2700.64,7.55
2727.65,7.54
2754.93,7.53
2782.48,7.52
2810.30,7.51
2838.40,7.49
2866.79,7.48
2895.46,7.46
2924.41,7.44
2953.65,7.41
2983.19,7.34
3013.02,7.34
3043.15,7.41
3073.58,7.48
3104.32,7.49
3135.36,7.48
3166.72,7.45
3198.38,7.41
3230.37,7.34
3262.67,7.25
3295.30,7.12
3328.25,7.20
3361.53,7.26
3395.15,7.23
3429.10,7.20
3463.39,7.16
3498.03,7.11
3533.01,7.07
3568.34,7.04
3604.02,7.01
3640.06,6.99
3676.46,6.97
3713.22,6.96
3750.36,6.96
3787.86,6.98
3825.74,6.99
3864.00,7.01
3902.64,7.04
3941.66,7.07
3981.08,7.11
4020.89,7.15
4061.10,7.20
4101.71,7.25
4142.73,7.30
4184.15,7.35
4226.00,7.40
4268.26,7.45
4310.94,7.50
4354.05,7.53
4397.59,7.55
4441.56,7.57
4485.98,7.58
4530.84,7.58
4576.15,7.57
4621.91,7.57
4668.13,7.55
4714.81,7.53
4761.96,7.51
4809.58,7.48
4857.67,7.44
4906.25,7.42
4955.31,7.41
5004.87,7.39
5054.91,7.37
5105.46,7.34
5156.52,7.31
5208.08,7.29
5260.16,7.27
5312.77,7.25
5365.89,7.24
5419.55,7.21
5473.75,7.18
5528.49,7.15
5583.77,7.10
5639.61,7.04
5696.00,6.98
5752.96,6.89
5810.49,6.80
5868.60,6.70
5927.28,6.58
5986.56,6.45
6046.42,6.31
6106.89,6.16
6167.96,6.00
6229.64,5.84
6291.93,5.67
6354.85,5.51
6418.40,5.36
6482.58,5.21
6547.41,5.08
6612.88,4.96
6679.01,4.90
6745.80,4.85
6813.26,4.82
6881.39,4.82
6950.21,4.87
7019.71,4.97
7089.91,5.17
7160.81,5.38
7232.41,5.62
7304.74,5.90
7377.79,6.24
7451.56,6.61
7526.08,7.00
7601.34,7.40
7677.35,7.78
7754.13,8.16
7831.67,8.40
7909.98,8.55
7989.08,8.55
8068.98,8.31
8149.67,7.93
8231.16,7.38
8313.47,6.70
8396.61,5.97
8480.57,5.18
8565.38,4.38
8651.03,3.60
8737.54,2.83
8824.92,2.10
8913.17,1.40
9002.30,0.71
9092.32,0.06
9183.25,-0.56
9275.08,-1.16
9367.83,-1.74
9461.51,-2.28
9556.12,-2.80
9651.68,-3.30
9748.20,-3.78
9845.68,-4.23
9944.14,-4.66
10043.58,-5.09
10144.02,-5.50
10245.46,-5.88
10347.91,-6.25
10451.39,-6.60
10555.91,-6.93
10661.46,-7.23
10768.08,-7.51
10875.76,-7.77
10984.52,-8.02
11094.36,-8.26
11205.31,-8.47
11317.36,-8.69
11430.53,-8.88
11544.84,-9.02
11660.29,-9.13
11776.89,-9.23
11894.66,-9.30
12013.60,-9.36
12133.74,-9.38
12255.08,-9.37
12377.63,-9.34
12501.41,-9.30
12626.42,-9.22
12752.68,-9.11
12880.21,-8.93
13009.01,-8.72
13139.10,-8.50
13270.49,-8.15
13403.20,-7.79
13537.23,-7.30
13672.60,-6.75
13809.33,-6.13
13947.42,-5.35
14086.90,-4.39
14227.77,-3.30
14370.04,-2.03
14513.74,-0.56
14658.88,1.08
14805.47,2.33
14953.52,2.95
15103.06,2.21
15254.09,0.84
15406.63,-1.10
15560.70,-2.94
15716.30,-4.60
15873.47,-5.98
16032.20,-7.16
16192.52,-7.95
16354.45,-8.61
16517.99,-9.17
16683.17,-9.54
16850.01,-9.81
17018.51,-10.00
17188.69,-10.05
17360.58,-10.01
17534.18,-9.91
17709.53,-9.73
17886.62,-9.54
18065.49,-9.44
18246.14,-9.52
18428.60,-10.00
18612.89,-10.88
18799.02,-12.17
18987.01,-13.90
19176.88,-15.96
19368.65,-18.24
19562.33,-20.79
19757.96,-23.62
19955.54,-26.45
