frequency,raw
20.00,10.24
20.20,10.22
20.40,10.19
20.61,10.17
20.81,10.15
21.02,10.13
21.23,10.12
21.44,10.10
21.66,10.09
21.87,10.06
22.09,10.04
22.31,10.01
22.54,9.98
22.76,9.95
22.99,9.92
23.22,9.91
23.45,9.90
23.69,9.90
23.92,9.91
24.16,9.90
24.40,9.89
24.65,9.88
24.89,9.85
25.14,9.81
25.39,9.77
25.65,9.74
25.91,9.71
26.16,9.69
26.43,9.67
26.69,9.65
26.96,9.63
27.23,9.61
27.50,9.59
27.77,9.57
28.05,9.55
28.33,9.55
28.62,9.54
28.90,9.55
29.19,9.56
29.48,9.56
29.78,9.56
30.08,9.56
30.38,9.56
30.68,9.55
30.99,9.53
31.30,9.52
31.61,9.50
31.93,9.48
32.24,9.48
32.57,9.47
32.89,9.47
33.22,9.47
33.55,9.47
33.89,9.47
34.23,9.46
34.57,9.46
34.92,9.45
35.27,9.44
35.62,9.43
35.97,9.42
36.33,9.41
36.70,9.41
37.06,9.41
37.43,9.40
37.81,9.40
38.19,9.39
38.57,9.38
38.95,9.37
39.34,9.36
39.74,9.36
40.14,9.35
40.54,9.35
40.94,9.35
41.35,9.34
41.76,9.34
42.18,9.34
42.60,9.34
43.03,9.34
43.46,9.35
43.90,9.35
44.33,9.36
44.78,9.36
45.23,9.36
45.68,9.36
46.13,9.37
46.60,9.38
47.06,9.39
47.53,9.41
48.01,9.40
48.49,9.40
48.97,9.39
49.46,9.37
49.96,9.37
50.46,9.36
50.96,9.36
51.47,9.37
51.99,9.37
52.51,9.37
53.03,9.36
53.56,9.34
54.10,9.32
54.64,9.30
55.18,9.28
55.74,9.25
56.29,9.21
56.86,9.18
57.42,9.14
58.00,9.10
58.58,9.07
59.16,9.04
59.76,9.02
60.35,9.00
60.96,8.98
61.57,8.96
62.18,8.94
62.80,8.90
63.43,8.87
64.07,8.83
64.71,8.79
65.35,8.74
66.01,8.70
66.67,8.65
67.33,8.61
68.01,8.56
68.69,8.52
69.37,8.47
70.07,8.43
70.77,8.39
71.48,8.34
72.19,8.29
72.91,8.25
73.64,8.20
74.38,8.16
75.12,8.11
75.87,8.06
76.63,8.02
77.40,7.97
78.17,7.92
78.95,7.87
79.74,7.82
80.54,7.77
81.35,7.72
82.16,7.67
82.98,7.62
83.81,7.57
84.65,7.52
85.50,7.47
86.35,7.43
87.22,7.38
88.09,7.33
88.97,7.29
89.86,7.24
90.76,7.19
91.66,7.13
92.58,7.08
93.51,7.02
94.44,6.97
95.39,6.92
96.34,6.87
97.30,6.83
98.28,6.79
99.26,6.76
100.25,6.71
101.25,6.67
102.27,6.61
103.29,6.56
104.32,6.51
105.37,6.46
106.42,6.41
107.48,6.36
108.56,6.31
109.64,6.26
110.74,6.21
111.85,6.16
112.97,6.11
114.10,6.06
115.24,6.01
116.39,5.96
117.55,5.92
118.73,5.87
119.92,5.82
121.12,5.77
122.33,5.71
123.55,5.66
124.79,5.61
126.03,5.56
127.29,5.51
128.57,5.45
129.85,5.40
131.15,5.35
132.46,5.29
133.79,5.23
135.12,5.18
136.48,5.12
137.84,5.07
139.22,5.01
140.61,4.95
142.02,4.89
143.44,4.83
144.87,4.78
146.32,4.73
147.78,4.67
149.26,4.62
150.75,4.57
152.26,4.51
153.78,4.46
155.32,4.40
156.88,4.35
158.44,4.30
160.03,4.25
161.63,4.20
163.24,4.15
164.88,4.10
166.53,4.05
168.19,4.00
169.87,3.95
171.57,3.90
173.29,3.85
175.02,3.80
176.77,3.75
178.54,3.70
180.32,3.64
182.13,3.59
183.95,3.54
185.79,3.48
187.65,3.43
189.52,3.38
191.42,3.33
193.33,3.28
195.27,3.23
197.22,3.18
199.19,3.12
201.18,3.06
203.19,3.00
205.23,2.93
207.28,2.87
209.35,2.80
211.44,2.74
213.56,2.67
215.69,2.62
217.85,2.56
220.03,2.52
222.23,2.50
224.45,2.49
226.70,2.49
228.96,2.50
231.25,2.51
233.57,2.51
235.90,2.50
238.26,2.47
240.64,2.44
243.05,2.40
245.48,2.36
247.93,2.31
250.41,2.25
252.92,2.20
255.45,2.16
258.00,2.12
260.58,2.08
263.19,2.06
265.82,2.04
268.48,2.02
271.16,2.02
273.87,2.01
276.61,2.00
279.38,1.98
282.17,1.95
284.99,1.92
287.84,1.88
290.72,1.84
293.63,1.80
296.57,1.76
299.53,1.72
302.53,1.68
305.55,1.64
308.61,1.60
311.69,1.56
314.81,1.52
317.96,1.48
321.14,1.44
324.35,1.40
327.59,1.36
330.87,1.32
334.18,1.28
337.52,1.23
340.90,1.19
344.30,1.15
347.75,1.11
351.23,1.07
354.74,1.04
358.28,1.00
361.87,0.96
365.49,0.92
369.14,0.88
372.83,0.84
376.56,0.79
380.33,0.75
384.13,0.71
387.97,0.67
391.85,0.64
395.77,0.61
399.73,0.57
403.72,0.53
407.76,0.49
411.84,0.45
415.96,0.41
420.12,0.37
424.32,0.34
428.56,0.31
432.85,0.29
437.18,0.27
441.55,0.25
445.96,0.23
450.42,0.22
454.93,0.20
459.48,0.18
464.07,0.15
468.71,0.12
473.40,0.09
478.13,0.06
482.91,0.03
487.74,0.00
492.62,-0.03
497.55,-0.06
502.52,-0.09
507.55,-0.12
512.62,-0.14
517.75,-0.17
522.93,-0.20
528.16,-0.22
533.44,-0.25
538.77,-0.27
544.16,-0.29
549.60,-0.30
555.10,-0.32
560.65,-0.33
566.25,-0.35
571.92,-0.36
577.64,-0.38
583.41,-0.40
589.25,-0.42
595.14,-0.45
601.09,-0.47
607.10,-0.49
613.17,-0.52
619.30,-0.54
625.50,-0.56
631.75,-0.58
638.07,-0.60
644.45,-0.62
650.89,-0.63
657.40,-0.65
663.98,-0.67
670.62,-0.69
677.32,-0.71
684.10,-0.73
690.94,-0.74
697.85,-0.76
704.83,-0.77
711.87,-0.78
718.99,-0.79
726.18,-0.80
733.44,-0.81
740.78,-0.82
748.19,-0.82
755.67,-0.82
763.23,-0.82
770.86,-0.82
778.57,-0.82
786.35,-0.82
794.22,-0.81
802.16,-0.80
810.18,-0.79
818.28,-0.77
826.46,-0.76
834.73,-0.74
843.08,-0.72
851.51,-0.69
860.02,-0.66
868.62,-0.63
877.31,-0.60
886.08,-0.56
894.94,-0.52
903.89,-0.48
912.93,-0.43
922.06,-0.39
931.28,-0.34
940.59,-0.29
950.00,-0.24
959.50,-0.19
969.09,-0.14
978.78,-0.10
988.57,-0.05
998.46,-0.01
1008.44,0.03
1018.53,0.07
1028.71,0.10
1039.00,0.12
1049.39,0.13
1059.88,0.15
1070.48,0.15
1081.19,0.14
1092.00,0.12
1102.92,0.09
1113.95,0.05
1125.09,0.00
1136.34,-0.06
1147.70,-0.13
1159.18,-0.21
1170.77,-0.29
1182.48,-0.38
1194.30,-0.47
1206.25,-0.55
1218.31,-0.63
1230.49,-0.67
1242.80,-0.72
1255.22,-0.72
1267.78,-0.70
1280.45,-0.64
1293.26,-0.53
1306.19,-0.42
1319.25,-0.29
1332.45,-0.12
1345.77,0.06
1359.23,0.26
1372.82,0.48
1386.55,0.71
1400.41,0.95
1414.42,1.20
1428.56,1.46
1442.85,1.71
1457.28,1.97
1471.85,2.22
1486.57,2.46
1501.43,2.70
1516.45,2.91
1531.61,3.12
1546.93,3.31
1562.40,3.50
1578.02,3.67
1593.80,3.83
1609.74,3.98
1625.84,4.13
1642.10,4.26
1658.52,4.39
1675.10,4.51
1691.85,4.63
1708.77,4.74
1725.86,4.85
1743.12,4.95
1760.55,5.05
1778.15,5.15
1795.94,5.24
1813.90,5.32
1832.03,5.41
1850.36,5.49
1868.86,5.57
1887.55,5.65
1906.42,5.72
1925.49,5.79
1944.74,5.86
1964.19,5.93
1983.83,6.00
2003.67,6.06
2023.71,6.12
2043.94,6.18
2064.38,6.23
2085.03,6.29
2105.88,6.34
2126.94,6.38
2148.20,6.42
2169.69,6.46
2191.38,6.49
2213.30,6.52
2235.43,6.55
2257.78,6.57
2280.36,6.58
2303.17,6.60
2326.20,6.61
2349.46,6.61
2372.95,6.61
2396.68,6.61
2420.65,6.60
2444.86,6.59
2469.31,6.58
2494.00,6.57
2518.94,6.54
2544.13,6.52
2569.57,6.49
2595.27,6.46
2621.22,6.42
2647.43,6.38
2673.90,6.34
2700.64,6.29
2727.65,6.24
2754.93,6.19
2782.48,6.13
2810.30,6.08
2838.40,6.02
2866.79,5.96
2895.46,5.89
2924.41,5.83
2953.65,5.76
2983.19,5.69
3013.02,5.62
3043.15,5.54
3073.58,5.47
3104.32,5.39
3135.36,5.31
3166.72,5.23
3198.38,5.14
3230.37,5.06
3262.67,4.97
3295.30,4.89
3328.25,4.80
3361.53,4.72
3395.15,4.64
3429.10,4.57
3463.39,4.49
3498.03,4.42
3533.01,4.36
3568.34,4.29
3604.02,4.23
3640.06,4.18
3676.46,4.12
3713.22,4.07
3750.36,4.01
3787.86,3.96
3825.74,3.90
3864.00,3.85
3902.64,3.80
3941.66,3.74
3981.08,3.69
4020.89,3.65
4061.10,3.60
4101.71,3.56
4142.73,3.52
4184.15,3.48
4226.00,3.45
4268.26,3.42
4310.94,3.40
4354.05,3.39
4397.59,3.38
4441.56,3.38
4485.98,3.39
4530.84,3.41
4576.15,3.43
4621.91,3.47
4668.13,3.51
4714.81,3.56
4761.96,3.62
4809.58,3.68
4857.67,3.75
4906.25,3.82
4955.31,3.90
5004.87,3.98
5054.91,4.07
5105.46,4.16
5156.52,4.26
5208.08,4.35
5260.16,4.46
5312.77,4.56
5365.89,4.67
5419.55,4.78
5473.75,4.90
5528.49,5.03
5583.77,5.16
5639.61,5.29
5696.00,5.43
5752.96,5.57
5810.49,5.71
5868.60,5.85
5927.28,5.97
5986.56,6.09
6046.42,6.19
6106.89,6.27
6167.96,6.33
6229.64,6.36
6291.93,6.36
6354.85,6.33
6418.40,6.27
6482.58,6.19
6547.41,6.09
6612.88,5.97
6679.01,5.84
6745.80,5.72
6813.26,5.60
6881.39,5.50
6950.21,5.44
7019.71,5.40
7089.91,5.41
7160.81,5.47
7232.41,5.58
7304.74,5.72
7377.79,5.91
7451.56,6.14
7526.08,6.38
7601.34,6.64
7677.35,6.88
7754.13,7.11
7831.67,7.28
7909.98,7.41
7989.08,7.49
8068.98,7.47
8149.67,7.41
8231.16,7.28
8313.47,7.09
8396.61,6.88
8480.57,6.61
8565.38,6.32
8651.03,6.02
8737.54,5.71
8824.92,5.39
8913.17,5.06
9002.30,4.74
9092.32,4.40
9183.25,4.06
9275.08,3.71
9367.83,3.35
9461.51,2.96
9556.12,2.55
9651.68,2.13
9748.20,1.69
9845.68,1.24
9944.14,0.80
10043.58,0.39
10144.02,0.01
10245.46,-0.31
10347.91,-0.58
10451.39,-0.81
10555.91,-1.00
10661.46,-1.17
10768.08,-1.34
10875.76,-1.50
10984.52,-1.67
11094.36,-1.84
11205.31,-2.01
11317.36,-2.16
11430.53,-2.31
11544.84,-2.42
11660.29,-2.50
11776.89,-2.56
11894.66,-2.54
12013.60,-2.51
12133.74,-2.44
12255.08,-2.29
12377.63,-2.11
12501.41,-1.87
12626.42,-1.56
12752.68,-1.16
12880.21,-0.62
13009.01,-0.01
13139.10,0.60
13270.49,1.44
13403.20,2.35
13537.23,3.39
13672.60,4.44
13809.33,5.49
13947.42,6.42
14086.90,7.07
14227.77,7.55
14370.04,7.74
14513.74,7.56
14658.88,6.91
14805.47,6.13
14953.52,5.11
15103.06,4.01
15254.09,2.89
15406.63,1.87
15560.70,0.95
15716.30,0.18
15873.47,-0.34
16032.20,-0.71
16192.52,-0.81
16354.45,-0.69
16517.99,-0.43
16683.17,0.06
16850.01,0.65
17018.51,1.30
17188.69,1.96
17360.58,2.50
17534.18,2.90
17709.53,3.01
17886.62,2.75
18065.49,2.21
18246.14,1.38
18428.60,0.19
18612.89,-1.14
18799.02,-2.58
18987.01,-4.11
19176.88,-5.66
19368.65,-7.19
19562.33,-8.68
19757.96,-10.04
19955.54,-10.93
