frequency,raw,smoothed,error,error_smoothed,equalization,parametric_eq,fixed_band_eq,equalized_raw,equalized_smoothed,target
20.00,2.95,2.95,-4.78,-4.78,4.78,4.65,1.22,7.73,7.73,7.73
20.20,3.01,3.01,-4.72,-4.72,4.72,4.59,1.26,7.73,7.73,7.73
20.40,3.07,3.07,-4.66,-4.66,4.66,4.53,1.30,7.73,7.73,7.73
20.61,3.13,3.13,-4.60,-4.60,4.60,4.48,1.34,7.73,7.73,7.73
20.81,3.19,3.19,-4.54,-4.54,4.54,4.42,1.38,7.73,7.73,7.73
21.02,3.25,3.25,-4.48,-4.48,4.48,4.37,1.42,7.73,7.73,7.73
21.23,3.31,3.31,-4.41,-4.41,4.41,4.31,1.46,7.72,7.72,7.73
21.44,3.37,3.37,-4.35,-4.35,4.35,4.26,1.51,7.72,7.72,7.72
21.66,3.44,3.44,-4.28,-4.29,4.29,4.21,1.55,7.73,7.72,7.72
21.87,3.50,3.50,-4.22,-4.22,4.22,4.15,1.60,7.72,7.72,7.72
22.09,3.57,3.57,-4.15,-4.15,4.15,4.10,1.65,7.72,7.72,7.72
22.31,3.63,3.63,-4.09,-4.09,4.09,4.04,1.70,7.72,7.72,7.72
22.54,3.70,3.70,-4.02,-4.02,4.02,3.99,1.75,7.72,7.72,7.72
22.76,3.77,3.77,-3.95,-3.95,3.95,3.93,1.80,7.72,7.72,7.72
22.99,3.84,3.84,-3.88,-3.88,3.88,3.88,1.85,7.72,7.72,7.72
23.22,3.90,3.91,-3.82,-3.81,3.81,3.83,1.91,7.71,7.72,7.72
23.45,3.97,3.97,-3.75,-3.75,3.75,3.77,1.96,7.72,7.72,7.72
23.69,4.04,4.03,-3.68,-3.68,3.68,3.72,2.02,7.72,7.72,7.72
23.92,4.09,4.10,-3.62,-3.62,3.62,3.67,2.08,7.71,7.72,7.71
24.16,4.15,4.15,-3.56,-3.56,3.56,3.62,2.14,7.72,7.72,7.71
24.40,4.21,4.20,-3.50,-3.51,3.51,3.56,2.20,7.72,7.71,7.71
24.65,4.25,4.26,-3.46,-3.45,3.46,3.51,2.26,7.71,7.71,7.71
24.89,4.30,4.30,-3.41,-3.41,3.41,3.46,2.32,7.71,7.71,7.71
25.14,4.35,4.35,-3.36,-3.36,3.36,3.41,2.38,7.71,7.71,7.71
25.39,4.39,4.39,-3.31,-3.31,3.31,3.36,2.44,7.70,7.70,7.71
25.65,4.44,4.44,-3.26,-3.26,3.26,3.31,2.50,7.70,7.70,7.70
25.91,4.49,4.49,-3.21,-3.21,3.21,3.26,2.56,7.70,7.70,7.70
26.16,4.54,4.54,-3.16,-3.16,3.16,3.21,2.62,7.70,7.70,7.70
26.43,4.59,4.59,-3.11,-3.11,3.10,3.16,2.68,7.69,7.70,7.70
26.69,4.65,4.65,-3.05,-3.05,3.05,3.11,2.74,7.70,7.70,7.70
26.96,4.71,4.71,-2.99,-2.99,2.99,3.06,2.80,7.70,7.70,7.70
27.23,4.76,4.76,-2.93,-2.94,2.94,3.01,2.86,7.70,7.70,7.69
27.50,4.81,4.81,-2.88,-2.88,2.88,2.96,2.91,7.69,7.69,7.69
27.77,4.86,4.86,-2.83,-2.83,2.82,2.91,2.96,7.69,7.69,7.69
28.05,4.92,4.92,-2.77,-2.77,2.77,2.86,3.01,7.69,7.69,7.69
28.33,4.97,4.97,-2.72,-2.72,2.72,2.82,3.06,7.69,7.69,7.69
28.62,5.02,5.02,-2.66,-2.66,2.67,2.77,3.11,7.69,7.69,7.68
28.90,5.07,5.07,-2.61,-2.61,2.62,2.72,3.14,7.69,7.68,7.68
29.19,5.11,5.11,-2.57,-2.57,2.57,2.68,3.18,7.68,7.68,7.68
29.48,5.15,5.15,-2.53,-2.52,2.53,2.63,3.21,7.68,7.68,7.68
29.78,5.19,5.19,-2.48,-2.48,2.49,2.59,3.24,7.68,7.68,7.68
30.08,5.23,5.22,-2.44,-2.45,2.45,2.54,3.26,7.68,7.68,7.67
30.38,5.25,5.25,-2.42,-2.42,2.42,2.50,3.28,7.67,7.67,7.67
30.68,5.28,5.28,-2.39,-2.38,2.38,2.45,3.29,7.66,7.66,7.67
30.99,5.31,5.31,-2.35,-2.35,2.34,2.41,3.30,7.66,7.66,7.66
31.30,5.35,5.35,-2.31,-2.31,2.31,2.37,3.30,7.66,7.65,7.66
31.61,5.38,5.38,-2.28,-2.28,2.27,2.33,3.30,7.65,7.65,7.66
31.93,5.42,5.42,-2.23,-2.23,2.23,2.28,3.29,7.65,7.65,7.65
32.24,5.46,5.46,-2.19,-2.19,2.19,2.24,3.27,7.65,7.65,7.65
32.57,5.50,5.50,-2.15,-2.15,2.16,2.20,3.25,7.66,7.65,7.65
32.89,5.53,5.53,-2.11,-2.11,2.12,2.16,3.23,7.65,7.65,7.64
33.22,5.56,5.56,-2.08,-2.08,2.08,2.12,3.20,7.64,7.64,7.64
33.55,5.59,5.59,-2.05,-2.05,2.05,2.08,3.17,7.64,7.64,7.64
33.89,5.61,5.62,-2.02,-2.02,2.02,2.04,3.13,7.63,7.63,7.63
34.23,5.64,5.64,-1.99,-1.99,1.99,2.01,3.09,7.63,7.63,7.63
34.57,5.67,5.67,-1.95,-1.96,1.96,1.97,3.04,7.63,7.62,7.62
34.92,5.69,5.69,-1.93,-1.93,1.93,1.93,2.99,7.62,7.62,7.62
35.27,5.72,5.72,-1.89,-1.90,1.90,1.90,2.94,7.62,7.61,7.61
35.62,5.74,5.74,-1.87,-1.87,1.86,1.86,2.89,7.60,7.61,7.61
35.97,5.77,5.77,-1.83,-1.83,1.83,1.83,2.83,7.60,7.60,7.60
36.33,5.80,5.80,-1.80,-1.80,1.80,1.79,2.78,7.60,7.60,7.60
36.70,5.83,5.83,-1.76,-1.76,1.76,1.76,2.72,7.59,7.59,7.59
37.06,5.86,5.86,-1.73,-1.73,1.73,1.72,2.66,7.59,7.59,7.59
37.43,5.89,5.89,-1.69,-1.69,1.70,1.69,2.60,7.59,7.59,7.58
37.81,5.91,5.91,-1.67,-1.67,1.67,1.66,2.53,7.58,7.58,7.58
38.19,5.93,5.93,-1.64,-1.64,1.64,1.63,2.47,7.57,7.57,7.57
38.57,5.94,5.94,-1.62,-1.62,1.62,1.60,2.41,7.56,7.56,7.56
38.95,5.96,5.96,-1.60,-1.60,1.59,1.57,2.35,7.55,7.55,7.56
39.34,5.98,5.98,-1.57,-1.57,1.57,1.54,2.29,7.55,7.55,7.55
39.74,6.00,6.00,-1.54,-1.54,1.54,1.51,2.23,7.54,7.54,7.54
40.14,6.02,6.02,-1.51,-1.51,1.51,1.48,2.17,7.53,7.53,7.53
40.54,6.04,6.04,-1.49,-1.49,1.49,1.45,2.11,7.53,7.53,7.53
40.94,6.06,6.06,-1.46,-1.46,1.46,1.42,2.05,7.52,7.52,7.52
41.35,6.08,6.08,-1.43,-1.43,1.43,1.39,1.99,7.51,7.51,7.51
41.76,6.09,6.10,-1.41,-1.41,1.41,1.37,1.93,7.50,7.50,7.50
42.18,6.11,6.11,-1.38,-1.38,1.38,1.34,1.88,7.49,7.49,7.49
42.60,6.13,6.13,-1.35,-1.36,1.35,1.31,1.83,7.49,7.48,7.48
43.03,6.14,6.14,-1.33,-1.33,1.33,1.29,1.77,7.47,7.47,7.47
43.46,6.16,6.16,-1.30,-1.31,1.30,1.26,1.72,7.47,7.46,7.46
43.90,6.17,6.17,-1.28,-1.28,1.28,1.24,1.67,7.45,7.45,7.45
44.33,6.18,6.19,-1.26,-1.26,1.26,1.22,1.62,7.44,7.44,7.44
44.78,6.20,6.20,-1.23,-1.23,1.24,1.19,1.57,7.44,7.43,7.43
45.23,6.21,6.21,-1.21,-1.21,1.22,1.17,1.53,7.43,7.42,7.42
45.68,6.21,6.22,-1.20,-1.19,1.20,1.15,1.48,7.41,7.41,7.41
46.13,6.22,6.22,-1.17,-1.18,1.18,1.13,1.44,7.40,7.40,7.39
46.60,6.22,6.22,-1.16,-1.16,1.16,1.10,1.40,7.38,7.38,7.38
47.06,6.22,6.22,-1.15,-1.14,1.14,1.08,1.35,7.36,7.37,7.37
47.53,6.23,6.23,-1.12,-1.13,1.12,1.06,1.31,7.35,7.35,7.35
48.01,6.23,6.23,-1.11,-1.11,1.10,1.04,1.28,7.33,7.33,7.34
48.49,6.24,6.24,-1.08,-1.08,1.08,1.02,1.24,7.32,7.32,7.33
48.97,6.25,6.25,-1.06,-1.06,1.06,1.00,1.20,7.31,7.31,7.31
49.46,6.26,6.26,-1.03,-1.03,1.04,0.98,1.17,7.30,7.30,7.29
49.96,6.27,6.27,-1.01,-1.01,1.02,0.96,1.13,7.29,7.29,7.28
50.46,6.26,6.26,-1.00,-1.00,1.00,0.94,1.10,7.26,7.27,7.26
50.96,6.26,6.26,-0.98,-0.98,0.98,0.92,1.06,7.25,7.24,7.24
51.47,6.25,6.25,-0.97,-0.97,0.97,0.91,1.03,7.22,7.22,7.23
51.99,6.25,6.25,-0.96,-0.96,0.95,0.89,1.00,7.20,7.20,7.21
52.51,6.25,6.25,-0.94,-0.94,0.93,0.87,0.97,7.18,7.18,7.19
53.03,6.25,6.25,-0.92,-0.92,0.92,0.85,0.94,7.17,7.17,7.17
53.56,6.25,6.25,-0.90,-0.90,0.90,0.83,0.91,7.15,7.15,7.15
54.10,6.25,6.25,-0.88,-0.88,0.88,0.81,0.88,7.13,7.13,7.13
54.64,6.25,6.25,-0.85,-0.85,0.85,0.79,0.86,7.10,7.10,7.10
55.18,6.25,6.25,-0.83,-0.83,0.83,0.78,0.83,7.08,7.08,7.08
55.74,6.25,6.25,-0.81,-0.81,0.81,0.76,0.80,7.06,7.06,7.06
56.29,6.25,6.25,-0.78,-0.78,0.79,0.74,0.77,7.04,7.04,7.03
56.86,6.25,6.25,-0.76,-0.76,0.76,0.72,0.75,7.01,7.01,7.01
57.42,6.24,6.24,-0.74,-0.74,0.74,0.70,0.72,6.98,6.98,6.98
58.00,6.24,6.24,-0.72,-0.72,0.72,0.68,0.69,6.96,6.95,6.96
58.58,6.23,6.23,-0.70,-0.70,0.69,0.66,0.67,6.92,6.93,6.93
59.16,6.23,6.23,-0.67,-0.67,0.67,0.64,0.64,6.90,6.90,6.90
59.76,6.23,6.23,-0.64,-0.65,0.64,0.63,0.62,6.87,6.87,6.87
60.35,6.22,6.22,-0.62,-0.62,0.62,0.61,0.59,6.84,6.84,6.84
60.96,6.22,6.22,-0.59,-0.59,0.60,0.59,0.56,6.82,6.81,6.81
61.57,6.21,6.21,-0.57,-0.57,0.57,0.57,0.54,6.78,6.78,6.78
62.18,6.20,6.20,-0.55,-0.55,0.55,0.54,0.51,6.75,6.75,6.75
62.80,6.19,6.19,-0.52,-0.53,0.53,0.52,0.48,6.72,6.72,6.72
63.43,6.17,6.17,-0.51,-0.51,0.51,0.50,0.45,6.68,6.68,6.68
64.07,6.16,6.16,-0.48,-0.49,0.48,0.48,0.43,6.65,6.64,6.65
64.71,6.14,6.14,-0.47,-0.47,0.46,0.46,0.40,6.60,6.60,6.61
65.35,6.13,6.13,-0.44,-0.44,0.44,0.44,0.37,6.57,6.57,6.57
66.01,6.12,6.12,-0.41,-0.41,0.41,0.41,0.34,6.53,6.53,6.53
66.67,6.11,6.11,-0.38,-0.38,0.39,0.39,0.31,6.50,6.50,6.50
67.33,6.10,6.10,-0.35,-0.36,0.36,0.37,0.28,6.46,6.46,6.46
68.01,6.09,6.09,-0.32,-0.33,0.33,0.34,0.25,6.42,6.42,6.41
68.69,6.07,6.07,-0.30,-0.30,0.30,0.32,0.22,6.37,6.38,6.37
69.37,6.06,6.06,-0.27,-0.27,0.27,0.29,0.19,6.33,6.33,6.33
70.07,6.04,6.04,-0.24,-0.24,0.24,0.26,0.16,6.28,6.28,6.29
70.77,6.02,6.02,-0.22,-0.22,0.21,0.24,0.12,6.23,6.24,6.24
71.48,6.01,6.01,-0.18,-0.19,0.18,0.21,0.09,6.20,6.19,6.19
72.19,5.99,5.99,-0.16,-0.16,0.15,0.18,0.06,6.15,6.15,6.15
72.91,5.97,5.97,-0.13,-0.12,0.12,0.15,0.03,6.09,6.10,6.10
73.64,5.96,5.96,-0.09,-0.09,0.09,0.12,-0.01,6.05,6.05,6.05
74.38,5.94,5.94,-0.06,-0.06,0.06,0.09,-0.04,6.00,6.00,6.00
75.12,5.92,5.92,-0.03,-0.03,0.03,0.06,-0.08,5.95,5.95,5.95
75.87,5.90,5.90,0.01,0.01,-0.01,0.03,-0.11,5.90,5.90,5.90
76.63,5.88,5.88,0.04,0.04,-0.04,0.00,-0.15,5.84,5.84,5.84
77.40,5.86,5.86,0.07,0.07,-0.07,-0.03,-0.18,5.79,5.79,5.79
78.17,5.84,5.84,0.11,0.10,-0.10,-0.07,-0.22,5.74,5.73,5.73
78.95,5.81,5.81,0.13,0.14,-0.14,-0.10,-0.25,5.67,5.68,5.68
79.74,5.79,5.79,0.17,0.17,-0.17,-0.13,-0.29,5.62,5.62,5.62
80.54,5.77,5.77,0.21,0.21,-0.21,-0.17,-0.33,5.56,5.56,5.56
81.35,5.74,5.74,0.24,0.24,-0.24,-0.20,-0.37,5.50,5.50,5.50
82.16,5.72,5.72,0.28,0.28,-0.28,-0.24,-0.40,5.44,5.44,5.44
82.98,5.70,5.70,0.32,0.32,-0.32,-0.28,-0.44,5.38,5.38,5.38
83.81,5.67,5.67,0.35,0.36,-0.35,-0.31,-0.48,5.32,5.32,5.32
84.65,5.65,5.65,0.40,0.39,-0.39,-0.35,-0.52,5.26,5.26,5.26
85.50,5.62,5.62,0.43,0.43,-0.43,-0.39,-0.56,5.19,5.19,5.19
86.35,5.60,5.60,0.47,0.47,-0.47,-0.43,-0.60,5.13,5.13,5.13
87.22,5.57,5.57,0.51,0.51,-0.51,-0.47,-0.64,5.06,5.06,5.06
88.09,5.55,5.55,0.55,0.55,-0.55,-0.51,-0.69,5.00,5.00,5.00
88.97,5.52,5.52,0.59,0.59,-0.59,-0.55,-0.73,4.93,4.93,4.93
89.86,5.50,5.50,0.64,0.64,-0.63,-0.59,-0.77,4.87,4.86,4.86
90.76,5.47,5.47,0.68,0.68,-0.67,-0.63,-0.82,4.80,4.80,4.79
91.66,5.44,5.44,0.71,0.72,-0.71,-0.67,-0.86,4.73,4.73,4.73
92.58,5.41,5.41,0.75,0.76,-0.75,-0.71,-0.90,4.66,4.66,4.66
93.51,5.38,5.38,0.79,0.79,-0.79,-0.75,-0.95,4.59,4.59,4.59
94.44,5.35,5.35,0.83,0.83,-0.83,-0.79,-1.00,4.52,4.52,4.52
95.39,5.31,5.31,0.87,0.87,-0.87,-0.84,-1.04,4.44,4.44,4.45
96.34,5.28,5.28,0.91,0.91,-0.91,-0.88,-1.09,4.37,4.37,4.37
97.30,5.25,5.25,0.95,0.95,-0.95,-0.92,-1.14,4.30,4.30,4.30
98.28,5.22,5.22,0.99,0.99,-0.99,-0.96,-1.18,4.23,4.23,4.23
99.26,5.19,5.19,1.03,1.03,-1.03,-1.01,-1.23,4.16,4.16,4.16
100.25,5.16,5.16,1.07,1.07,-1.07,-1.05,-1.28,4.09,4.09,4.09
101.25,5.13,5.13,1.12,1.11,-1.11,-1.09,-1.33,4.02,4.01,4.01
102.27,5.09,5.09,1.15,1.15,-1.15,-1.13,-1.38,3.94,3.94,3.94
103.29,5.06,5.06,1.19,1.19,-1.19,-1.18,-1.42,3.87,3.87,3.87
104.32,5.03,5.03,1.24,1.23,-1.23,-1.22,-1.47,3.80,3.79,3.79
105.37,4.99,4.99,1.27,1.27,-1.27,-1.26,-1.52,3.72,3.72,3.72
106.42,4.95,4.96,1.30,1.31,-1.31,-1.30,-1.57,3.64,3.65,3.65
107.48,4.92,4.92,1.34,1.34,-1.34,-1.34,-1.61,3.58,3.57,3.58
108.56,4.88,4.88,1.38,1.38,-1.38,-1.39,-1.66,3.50,3.50,3.50
109.64,4.84,4.84,1.41,1.41,-1.41,-1.43,-1.70,3.43,3.43,3.43
110.74,4.81,4.81,1.45,1.45,-1.45,-1.47,-1.74,3.36,3.36,3.36
111.85,4.77,4.77,1.49,1.48,-1.48,-1.51,-1.79,3.29,3.29,3.29
112.97,4.73,4.73,1.52,1.52,-1.52,-1.55,-1.82,3.21,3.22,3.21
114.10,4.69,4.69,1.55,1.55,-1.55,-1.59,-1.86,3.14,3.14,3.14
115.24,4.65,4.65,1.58,1.58,-1.58,-1.63,-1.90,3.07,3.07,3.07
116.39,4.61,4.61,1.61,1.61,-1.61,-1.67,-1.93,3.00,3.00,3.00
117.55,4.57,4.57,1.64,1.64,-1.64,-1.70,-1.96,2.93,2.93,2.93
118.73,4.53,4.53,1.67,1.67,-1.67,-1.74,-1.99,2.86,2.86,2.86
119.92,4.49,4.49,1.70,1.70,-1.71,-1.78,-2.02,2.79,2.79,2.79
121.12,4.46,4.46,1.74,1.74,-1.74,-1.81,-2.05,2.72,2.72,2.72
122.33,4.42,4.42,1.77,1.77,-1.77,-1.85,-2.07,2.65,2.65,2.65
123.55,4.39,4.39,1.81,1.80,-1.80,-1.88,-2.09,2.59,2.59,2.59
124.79,4.35,4.35,1.83,1.84,-1.83,-1.92,-2.10,2.52,2.52,2.52
126.03,4.32,4.32,1.87,1.87,-1.87,-1.95,-2.11,2.45,2.45,2.45
127.29,4.29,4.29,1.90,1.90,-1.90,-1.98,-2.12,2.39,2.39,2.39
128.57,4.25,4.26,1.93,1.94,-1.94,-2.01,-2.13,2.32,2.32,2.32
129.85,4.23,4.23,1.97,1.97,-1.97,-2.04,-2.13,2.26,2.26,2.26
131.15,4.20,4.20,2.01,2.00,-2.00,-2.07,-2.14,2.20,2.19,2.20
132.46,4.17,4.17,2.04,2.04,-2.04,-2.10,-2.13,2.13,2.13,2.13
133.79,4.14,4.14,2.07,2.07,-2.07,-2.13,-2.13,2.07,2.07,2.07
135.12,4.12,4.12,2.11,2.11,-2.11,-2.15,-2.13,2.01,2.01,2.01
136.48,4.09,4.09,2.14,2.14,-2.14,-2.18,-2.12,1.95,1.95,1.95
137.84,4.07,4.07,2.18,2.17,-2.18,-2.20,-2.11,1.90,1.89,1.89
139.22,4.04,4.04,2.21,2.21,-2.21,-2.23,-2.10,1.83,1.84,1.84
140.61,4.02,4.02,2.24,2.24,-2.24,-2.25,-2.09,1.78,1.78,1.78
142.02,4.00,4.00,2.28,2.27,-2.27,-2.27,-2.08,1.73,1.72,1.72
143.44,3.97,3.98,2.30,2.31,-2.31,-2.29,-2.06,1.66,1.67,1.67
144.87,3.95,3.95,2.34,2.34,-2.34,-2.31,-2.05,1.62,1.62,1.62
146.32,3.93,3.93,2.37,2.36,-2.36,-2.33,-2.03,1.57,1.56,1.56
147.78,3.90,3.90,2.39,2.39,-2.39,-2.34,-2.02,1.51,1.51,1.51
149.26,3.87,3.87,2.41,2.41,-2.41,-2.36,-2.00,1.46,1.46,1.46
150.75,3.84,3.84,2.43,2.43,-2.43,-2.37,-1.99,1.41,1.41,1.41
152.26,3.81,3.81,2.45,2.45,-2.45,-2.38,-1.97,1.36,1.36,1.36
153.78,3.78,3.78,2.47,2.46,-2.46,-2.40,-1.96,1.32,1.32,1.31
155.32,3.74,3.74,2.47,2.48,-2.47,-2.41,-1.94,1.27,1.27,1.27
156.88,3.71,3.71,2.49,2.48,-2.48,-2.42,-1.93,1.23,1.22,1.22
158.44,3.67,3.67,2.49,2.49,-2.49,-2.42,-1.92,1.18,1.18,1.18
160.03,3.63,3.63,2.50,2.50,-2.50,-2.43,-1.91,1.13,1.13,1.14
161.63,3.59,3.59,2.51,2.50,-2.51,-2.44,-1.90,1.08,1.08,1.08
163.24,3.55,3.55,2.51,2.51,-2.51,-2.44,-1.89,1.04,1.04,1.04
164.88,3.51,3.51,2.51,2.51,-2.51,-2.45,-1.88,1.00,1.00,1.00
166.53,3.48,3.48,2.52,2.52,-2.51,-2.45,-1.87,0.97,0.96,0.96
168.19,3.44,3.44,2.52,2.52,-2.51,-2.45,-1.87,0.93,0.93,0.92
169.87,3.40,3.40,2.51,2.52,-2.51,-2.45,-1.86,0.89,0.89,0.89
171.57,3.36,3.36,2.51,2.51,-2.51,-2.45,-1.86,0.85,0.85,0.85
173.29,3.32,3.32,2.51,2.51,-2.51,-2.45,-1.86,0.81,0.81,0.81
175.02,3.28,3.28,2.50,2.50,-2.50,-2.45,-1.86,0.78,0.78,0.78
176.77,3.24,3.24,2.49,2.49,-2.50,-2.44,-1.86,0.75,0.75,0.75
178.54,3.20,3.20,2.49,2.49,-2.49,-2.44,-1.87,0.71,0.71,0.71
180.32,3.16,3.16,2.48,2.48,-2.48,-2.43,-1.87,0.68,0.68,0.68
182.13,3.12,3.12,2.47,2.47,-2.47,-2.42,-1.88,0.65,0.65,0.65
183.95,3.08,3.08,2.46,2.46,-2.46,-2.42,-1.88,0.62,0.62,0.62
185.79,3.03,3.03,2.44,2.44,-2.44,-2.41,-1.89,0.59,0.59,0.59
187.65,2.99,2.99,2.43,2.43,-2.43,-2.40,-1.91,0.56,0.56,0.56
189.52,2.95,2.95,2.41,2.41,-2.42,-2.39,-1.92,0.54,0.54,0.54
191.42,2.91,2.91,2.40,2.40,-2.40,-2.37,-1.93,0.51,0.51,0.51
193.33,2.87,2.87,2.39,2.38,-2.38,-2.36,-1.95,0.49,0.48,0.48
195.27,2.82,2.83,2.36,2.37,-2.37,-2.35,-1.96,0.46,0.46,0.46
197.22,2.78,2.78,2.35,2.35,-2.35,-2.33,-1.98,0.43,0.43,0.43
199.19,2.74,2.74,2.33,2.33,-2.33,-2.32,-2.00,0.41,0.41,0.41
201.18,2.69,2.69,2.30,2.31,-2.31,-2.30,-2.01,0.38,0.39,0.39
203.19,2.65,2.65,2.29,2.29,-2.29,-2.29,-2.03,0.37,0.37,0.37
205.23,2.61,2.61,2.27,2.26,-2.26,-2.27,-2.05,0.35,0.34,0.34
207.28,2.56,2.56,2.24,2.24,-2.24,-2.25,-2.07,0.32,0.32,0.32
209.35,2.52,2.52,2.22,2.22,-2.22,-2.23,-2.09,0.30,0.30,0.30
211.44,2.48,2.48,2.20,2.20,-2.20,-2.21,-2.11,0.28,0.28,0.28
213.56,2.44,2.44,2.18,2.17,-2.17,-2.19,-2.13,0.27,0.27,0.26
215.69,2.39,2.39,2.14,2.15,-2.15,-2.17,-2.15,0.24,0.25,0.25
217.85,2.35,2.35,2.12,2.12,-2.12,-2.15,-2.17,0.23,0.23,0.23
220.03,2.31,2.31,2.10,2.10,-2.10,-2.13,-2.19,0.21,0.21,0.21
222.23,2.27,2.27,2.08,2.07,-2.07,-2.10,-2.20,0.20,0.20,0.20
224.45,2.22,2.22,2.04,2.04,-2.04,-2.08,-2.22,0.18,0.18,0.18
226.70,2.18,2.18,2.02,2.02,-2.02,-2.06,-2.23,0.16,0.16,0.16
228.96,2.14,2.14,1.99,1.99,-1.99,-2.03,-2.24,0.15,0.15,0.15
231.25,2.10,2.10,1.97,1.96,-1.97,-2.01,-2.25,0.14,0.13,0.13
233.57,2.05,2.05,1.93,1.94,-1.94,-1.98,-2.26,0.11,0.12,0.12
235.90,2.01,2.01,1.91,1.91,-1.91,-1.96,-2.26,0.10,0.10,0.10
238.26,1.97,1.97,1.89,1.89,-1.88,-1.93,-2.27,0.09,0.09,0.08
240.64,1.93,1.93,1.86,1.86,-1.86,-1.90,-2.27,0.07,0.08,0.07
243.05,1.89,1.89,1.83,1.83,-1.83,-1.88,-2.26,0.06,0.06,0.06
245.48,1.85,1.85,1.80,1.80,-1.80,-1.85,-2.25,0.05,0.05,0.05
247.93,1.80,1.80,1.76,1.77,-1.77,-1.82,-2.24,0.03,0.03,0.04
250.41,1.76,1.76,1.74,1.74,-1.74,-1.79,-2.23,0.02,0.02,0.03
252.92,1.73,1.73,1.72,1.71,-1.71,-1.76,-2.21,0.02,0.01,0.01
255.45,1.69,1.69,1.69,1.68,-1.68,-1.73,-2.19,0.01,0.01,0.00
258.00,1.65,1.65,1.66,1.66,-1.66,-1.70,-2.17,-0.01,-0.00,-0.01
260.58,1.61,1.61,1.63,1.63,-1.63,-1.68,-2.14,-0.02,-0.02,-0.01
263.19,1.58,1.58,1.60,1.60,-1.60,-1.65,-2.11,-0.02,-0.03,-0.02
265.82,1.54,1.54,1.57,1.58,-1.58,-1.61,-2.08,-0.04,-0.03,-0.03
268.48,1.51,1.51,1.55,1.55,-1.55,-1.58,-2.04,-0.04,-0.04,-0.04
271.16,1.47,1.47,1.52,1.52,-1.53,-1.55,-2.00,-0.05,-0.05,-0.05
273.87,1.44,1.44,1.50,1.50,-1.50,-1.52,-1.96,-0.06,-0.06,-0.06
276.61,1.41,1.41,1.48,1.47,-1.47,-1.49,-1.92,-0.06,-0.06,-0.07
279.38,1.37,1.37,1.44,1.45,-1.44,-1.46,-1.87,-0.07,-0.07,-0.07
282.17,1.34,1.34,1.42,1.41,-1.41,-1.43,-1.83,-0.07,-0.07,-0.08
284.99,1.30,1.30,1.38,1.38,-1.38,-1.40,-1.78,-0.08,-0.08,-0.08
287.84,1.27,1.27,1.34,1.35,-1.35,-1.36,-1.72,-0.08,-0.08,-0.07
290.72,1.23,1.23,1.31,1.31,-1.31,-1.33,-1.67,-0.08,-0.08,-0.08
293.63,1.20,1.20,1.29,1.28,-1.28,-1.30,-1.62,-0.08,-0.08,-0.09
296.57,1.16,1.16,1.24,1.25,-1.24,-1.26,-1.56,-0.08,-0.08,-0.08
299.53,1.13,1.13,1.21,1.21,-1.21,-1.23,-1.51,-0.08,-0.08,-0.08
302.53,1.09,1.09,1.17,1.17,-1.17,-1.20,-1.45,-0.08,-0.08,-0.08
305.55,1.06,1.06,1.14,1.14,-1.14,-1.17,-1.40,-0.08,-0.08,-0.08
308.61,1.02,1.02,1.10,1.10,-1.10,-1.13,-1.34,-0.08,-0.08,-0.08
311.69,0.99,0.99,1.07,1.07,-1.07,-1.10,-1.28,-0.08,-0.08,-0.08
314.81,0.95,0.95,1.03,1.04,-1.03,-1.06,-1.23,-0.08,-0.08,-0.08
317.96,0.92,0.92,1.00,1.00,-1.00,-1.03,-1.17,-0.08,-0.08,-0.08
321.14,0.89,0.89,0.97,0.97,-0.97,-1.00,-1.11,-0.07,-0.08,-0.08
324.35,0.85,0.85,0.93,0.93,-0.93,-0.96,-1.06,-0.08,-0.08,-0.08
327.59,0.82,0.82,0.89,0.89,-0.90,-0.93,-1.00,-0.08,-0.08,-0.07
330.87,0.79,0.79,0.87,0.86,-0.86,-0.89,-0.95,-0.07,-0.07,-0.07
334.18,0.75,0.75,0.82,0.83,-0.82,-0.86,-0.89,-0.07,-0.07,-0.07
337.52,0.72,0.72,0.79,0.79,-0.79,-0.82,-0.83,-0.07,-0.07,-0.07
340.90,0.69,0.69,0.76,0.75,-0.75,-0.79,-0.78,-0.06,-0.06,-0.07
344.30,0.65,0.65,0.71,0.72,-0.71,-0.75,-0.72,-0.06,-0.06,-0.06
347.75,0.62,0.62,0.67,0.68,-0.68,-0.72,-0.67,-0.06,-0.06,-0.05
351.23,0.59,0.59,0.65,0.64,-0.64,-0.68,-0.62,-0.05,-0.05,-0.06
354.74,0.55,0.55,0.59,0.60,-0.60,-0.65,-0.56,-0.05,-0.05,-0.04
358.28,0.52,0.52,0.56,0.56,-0.56,-0.61,-0.51,-0.04,-0.04,-0.04
361.87,0.49,0.49,0.53,0.52,-0.52,-0.58,-0.46,-0.03,-0.03,-0.03
365.49,0.46,0.46,0.49,0.49,-0.49,-0.54,-0.41,-0.03,-0.03,-0.03
369.14,0.42,0.42,0.45,0.45,-0.45,-0.51,-0.36,-0.03,-0.02,-0.03
372.83,0.39,0.39,0.40,0.41,-0.41,-0.47,-0.31,-0.02,-0.02,-0.01
376.56,0.36,0.36,0.38,0.37,-0.37,-0.43,-0.26,-0.01,-0.01,-0.01
380.33,0.33,0.33,0.34,0.34,-0.34,-0.40,-0.21,-0.01,-0.01,-0.01
384.13,0.30,0.30,0.31,0.30,-0.30,-0.36,-0.16,0.00,-0.00,-0.01
387.97,0.26,0.26,0.26,0.26,-0.26,-0.32,-0.11,-0.00,0.00,-0.00
391.85,0.23,0.23,0.21,0.22,-0.23,-0.29,-0.06,0.00,0.01,0.02
395.77,0.20,0.20,0.19,0.19,-0.19,-0.25,-0.01,0.01,0.01,0.01
399.73,0.18,0.18,0.16,0.15,-0.16,-0.22,0.04,0.02,0.02,0.02
403.72,0.15,0.15,0.12,0.12,-0.12,-0.18,0.08,0.03,0.03,0.03
407.76,0.12,0.12,0.09,0.09,-0.09,-0.14,0.13,0.03,0.04,0.03
411.84,0.09,0.09,0.05,0.05,-0.05,-0.10,0.17,0.04,0.04,0.04
415.96,0.06,0.06,0.02,0.02,-0.02,-0.07,0.22,0.04,0.04,0.04
420.12,0.03,0.03,-0.01,-0.02,0.01,-0.03,0.26,0.04,0.04,0.04
424.32,0.00,0.00,-0.05,-0.05,0.05,0.01,0.31,0.05,0.05,0.05
428.56,-0.02,-0.02,-0.08,-0.08,0.08,0.04,0.35,0.06,0.06,0.06
432.85,-0.05,-0.05,-0.12,-0.11,0.12,0.08,0.39,0.07,0.07,0.07
437.18,-0.08,-0.07,-0.15,-0.14,0.15,0.12,0.43,0.07,0.08,0.07
441.55,-0.10,-0.10,-0.18,-0.18,0.18,0.15,0.47,0.09,0.08,0.08
445.96,-0.13,-0.13,-0.21,-0.22,0.22,0.19,0.51,0.09,0.09,0.08
450.42,-0.16,-0.16,-0.26,-0.26,0.25,0.23,0.54,0.09,0.10,0.10
454.93,-0.18,-0.18,-0.29,-0.29,0.29,0.27,0.58,0.11,0.11,0.11
459.48,-0.21,-0.21,-0.33,-0.33,0.32,0.30,0.61,0.11,0.11,0.12
464.07,-0.23,-0.23,-0.35,-0.35,0.36,0.34,0.64,0.13,0.12,0.12
468.71,-0.26,-0.26,-0.39,-0.39,0.39,0.38,0.67,0.13,0.13,0.13
473.40,-0.28,-0.28,-0.42,-0.42,0.42,0.41,0.70,0.14,0.14,0.14
478.13,-0.31,-0.31,-0.46,-0.45,0.45,0.45,0.73,0.14,0.15,0.15
482.91,-0.33,-0.33,-0.48,-0.48,0.48,0.49,0.75,0.15,0.15,0.16
487.74,-0.35,-0.35,-0.51,-0.52,0.52,0.52,0.78,0.17,0.16,0.16
492.62,-0.38,-0.38,-0.55,-0.55,0.55,0.56,0.80,0.17,0.17,0.17
497.55,-0.40,-0.40,-0.58,-0.58,0.58,0.60,0.82,0.19,0.19,0.18
502.52,-0.42,-0.42,-0.61,-0.62,0.62,0.63,0.83,0.20,0.20,0.19
507.55,-0.44,-0.44,-0.65,-0.65,0.65,0.67,0.85,0.21,0.21,0.21
512.62,-0.47,-0.47,-0.69,-0.69,0.68,0.70,0.86,0.21,0.22,0.22
517.75,-0.49,-0.49,-0.72,-0.72,0.71,0.74,0.88,0.23,0.23,0.23
522.93,-0.51,-0.51,-0.75,-0.75,0.75,0.77,0.89,0.24,0.24,0.24
528.16,-0.53,-0.53,-0.78,-0.78,0.78,0.81,0.90,0.25,0.25,0.25
533.44,-0.55,-0.55,-0.81,-0.80,0.81,0.84,0.90,0.26,0.26,0.26
538.77,-0.57,-0.57,-0.83,-0.83,0.84,0.88,0.91,0.27,0.27,0.26
544.16,-0.59,-0.59,-0.87,-0.86,0.87,0.91,0.91,0.28,0.28,0.28
