frequency,raw
20.00,2.10
20.20,2.14
20.40,2.19
20.61,2.23
20.81,2.28
21.02,2.32
21.23,2.36
21.44,2.41
21.66,2.45
21.87,2.49
22.09,2.54
22.31,2.58
22.54,2.62
22.76,2.66
22.99,2.70
23.22,2.74
23.45,2.78
23.69,2.82
23.92,2.86
24.16,2.90
24.40,2.94
24.65,2.98
24.89,3.02
25.14,3.06
25.39,3.10
25.65,3.14
25.91,3.17
26.16,3.21
26.43,3.25
26.69,3.28
26.96,3.31
27.23,3.34
27.50,3.37
27.77,3.40
28.05,3.43
28.33,3.45
28.62,3.48
28.90,3.51
29.19,3.53
29.48,3.56
29.78,3.59
30.08,3.61
30.38,3.64
30.68,3.67
30.99,3.69
31.30,3.72
31.61,3.75
31.93,3.77
32.24,3.80
32.57,3.82
32.89,3.84
33.22,3.86
33.55,3.89
33.89,3.91
34.23,3.93
34.57,3.95
34.92,3.98
35.27,4.00
35.62,4.02
35.97,4.04
36.33,4.06
36.70,4.08
37.06,4.10
37.43,4.12
37.81,4.14
38.19,4.15
38.57,4.17
38.95,4.18
39.34,4.20
39.74,4.21
40.14,4.22
40.54,4.23
40.94,4.25
41.35,4.26
41.76,4.27
42.18,4.28
42.60,4.29
43.03,4.31
43.46,4.32
43.90,4.33
44.33,4.35
44.78,4.36
45.23,4.37
45.68,4.38
46.13,4.40
46.60,4.41
47.06,4.42
47.53,4.43
48.01,4.44
48.49,4.45
48.97,4.46
49.46,4.47
49.96,4.48
50.46,4.49
50.96,4.50
51.47,4.50
51.99,4.51
52.51,4.52
53.03,4.52
53.56,4.53
54.10,4.53
54.64,4.53
55.18,4.54
55.74,4.54
56.29,4.54
56.86,4.54
57.42,4.54
58.00,4.54
58.58,4.54
59.16,4.54
59.76,4.54
60.35,4.54
60.96,4.54
61.57,4.54
62.18,4.54
62.80,4.54
63.43,4.53
64.07,4.53
64.71,4.53
65.35,4.52
66.01,4.52
66.67,4.52
67.33,4.51
68.01,4.51
68.69,4.50
69.37,4.50
70.07,4.49
70.77,4.49
71.48,4.48
72.19,4.47
72.91,4.46
73.64,4.45
74.38,4.45
75.12,4.44
75.87,4.44
76.63,4.43
77.40,4.42
78.17,4.41
78.95,4.40
79.74,4.40
80.54,4.39
81.35,4.38
82.16,4.37
82.98,4.36
83.81,4.34
84.65,4.33
85.50,4.32
86.35,4.31
87.22,4.30
88.09,4.29
88.97,4.28
89.86,4.27
90.76,4.25
91.66,4.24
92.58,4.23
93.51,4.22
94.44,4.20
95.39,4.19
96.34,4.17
97.30,4.16
98.28,4.14
99.26,4.13
100.25,4.11
101.25,4.09
102.27,4.07
103.29,4.06
104.32,4.04
105.37,4.02
106.42,4.01
107.48,3.99
108.56,3.97
109.64,3.95
110.74,3.94
111.85,3.92
112.97,3.90
114.10,3.88
115.24,3.87
116.39,3.85
117.55,3.83
118.73,3.81
119.92,3.79
121.12,3.77
122.33,3.75
123.55,3.73
124.79,3.71
126.03,3.69
127.29,3.67
128.57,3.65
129.85,3.63
131.15,3.61
132.46,3.59
133.79,3.57
135.12,3.55
136.48,3.53
137.84,3.51
139.22,3.49
140.61,3.47
142.02,3.45
143.44,3.43
144.87,3.41
146.32,3.38
147.78,3.36
149.26,3.34
150.75,3.32
152.26,3.30
153.78,3.28
155.32,3.25
156.88,3.23
158.44,3.21
160.03,3.18
161.63,3.16
163.24,3.14
164.88,3.11
166.53,3.09
168.19,3.06
169.87,3.04
171.57,3.01
173.29,2.98
175.02,2.96
176.77,2.93
178.54,2.90
180.32,2.87
182.13,2.84
183.95,2.81
185.79,2.79
187.65,2.76
189.52,2.73
191.42,2.70
193.33,2.67
195.27,2.65
197.22,2.62
199.19,2.59
201.18,2.57
203.19,2.54
205.23,2.51
207.28,2.48
209.35,2.45
211.44,2.41
213.56,2.38
215.69,2.34
217.85,2.30
220.03,2.26
222.23,2.22
224.45,2.18
226.70,2.13
228.96,2.09
231.25,2.04
233.57,1.99
235.90,1.93
238.26,1.88
240.64,1.82
243.05,1.76
245.48,1.70
247.93,1.64
250.41,1.58
252.92,1.52
255.45,1.45
258.00,1.39
260.58,1.33
263.19,1.27
265.82,1.21
268.48,1.16
271.16,1.11
273.87,1.06
276.61,1.02
279.38,0.98
282.17,0.94
284.99,0.91
287.84,0.89
290.72,0.87
293.63,0.86
296.57,0.85
299.53,0.85
302.53,0.84
305.55,0.83
308.61,0.82
311.69,0.81
314.81,0.79
317.96,0.78
321.14,0.76
324.35,0.75
327.59,0.73
330.87,0.72
334.18,0.70
337.52,0.68
340.90,0.67
344.30,0.65
347.75,0.63
351.23,0.61
354.74,0.60
358.28,0.58
361.87,0.57
365.49,0.55
369.14,0.54
372.83,0.52
376.56,0.51
380.33,0.49
384.13,0.47
387.97,0.45
391.85,0.42
395.77,0.40
399.73,0.37
403.72,0.34
407.76,0.31
411.84,0.29
415.96,0.27
420.12,0.25
424.32,0.24
428.56,0.23
432.85,0.22
437.18,0.21
441.55,0.20
445.96,0.19
450.42,0.18
454.93,0.16
459.48,0.15
464.07,0.14
468.71,0.12
473.40,0.10
478.13,0.08
482.91,0.06
487.74,0.04
492.62,0.02
497.55,0.00
502.52,-0.02
507.55,-0.03
512.62,-0.05
517.75,-0.06
522.93,-0.08
528.16,-0.09
533.44,-0.10
538.77,-0.12
544.16,-0.13
549.60,-0.15
555.10,-0.16
560.65,-0.18
566.25,-0.19
571.92,-0.21
577.64,-0.22
583.41,-0.24
589.25,-0.25
595.14,-0.27
601.09,-0.28
607.10,-0.30
613.17,-0.32
619.30,-0.34
625.50,-0.35
631.75,-0.37
638.07,-0.39
644.45,-0.41
650.89,-0.43
657.40,-0.44
663.98,-0.46
670.62,-0.48
677.32,-0.49
684.10,-0.50
690.94,-0.51
697.85,-0.52
704.83,-0.53
711.87,-0.53
718.99,-0.54
726.18,-0.54
733.44,-0.55
740.78,-0.55
748.19,-0.56
755.67,-0.56
763.23,-0.57
770.86,-0.57
778.57,-0.57
786.35,-0.57
794.22,-0.57
802.16,-0.56
810.18,-0.55
818.28,-0.54
826.46,-0.53
834.73,-0.51
843.08,-0.50
851.51,-0.48
860.02,-0.47
868.62,-0.45
877.31,-0.44
886.08,-0.42
894.94,-0.40
903.89,-0.38
912.93,-0.35
922.06,-0.32
931.28,-0.29
940.59,-0.26
950.00,-0.22
959.50,-0.18
969.09,-0.14
978.78,-0.10
988.57,-0.05
998.46,-0.01
1008.44,0.04
1018.53,0.09
1028.71,0.13
1039.00,0.18
1049.39,0.22
1059.88,0.27
1070.48,0.32
1081.19,0.36
1092.00,0.42
1102.92,0.47
1113.95,0.53
1125.09,0.59
1136.34,0.65
1147.70,0.70
1159.18,0.76
1170.77,0.81
1182.48,0.87
1194.30,0.92
1206.25,0.97
1218.31,1.03
1230.49,1.08
1242.80,1.14
1255.22,1.19
1267.78,1.25
1280.45,1.31
1293.26,1.36
1306.19,1.42
1319.25,1.47
1332.45,1.52
1345.77,1.57
1359.23,1.61
1372.82,1.66
1386.55,1.71
1400.41,1.76
1414.42,1.82
1428.56,1.88
1442.85,1.94
1457.28,2.00
1471.85,2.07
1486.57,2.13
1501.43,2.20
1516.45,2.27
1531.61,2.35
1546.93,2.42
1562.40,2.50
1578.02,2.58
1593.80,2.66
1609.74,2.75
1625.84,2.84
1642.10,2.94
1658.52,3.04
1675.10,3.14
1691.85,3.25
1708.77,3.36
1725.86,3.48
1743.12,3.60
1760.55,3.72
1778.15,3.85
1795.94,3.98
1813.90,4.12
1832.03,4.27
1850.36,4.41
1868.86,4.57
1887.55,4.72
1906.42,4.88
1925.49,5.04
1944.74,5.20
1964.19,5.37
1983.83,5.53
2003.67,5.69
2023.71,5.84
2043.94,5.99
2064.38,6.14
2085.03,6.28
2105.88,6.41
2126.94,6.53
2148.20,6.64
2169.69,6.75
2191.38,6.84
2213.30,6.92
2235.43,7.00
2257.78,7.06
2280.36,7.12
2303.17,7.18
2326.20,7.23
2349.46,7.27
2372.95,7.31
2396.68,7.35
2420.65,7.38
2444.86,7.41
2469.31,7.44
2494.00,7.45
2518.94,7.46
2544.13,7.47
2569.57,7.46
2595.27,7.46
2621.22,7.45
2647.43,7.44
2673.90,7.43
2700.64,7.42
2727.65,7.42
2754.93,7.41
2782.48,7.41
2810.30,7.41
2838.40,7.42
2866.79,7.43
2895.46,7.44
2924.41,7.46
2953.65,7.48
2983.19,7.50
3013.02,7.52
3043.15,7.55
3073.58,7.58
3104.32,7.62
3135.36,7.65
3166.72,7.69
3198.38,7.73
3230.37,7.77
3262.67,7.81
3295.30,7.85
3328.25,7.89
3361.53,7.92
3395.15,7.96
3429.10,8.00
3463.39,8.03
3498.03,8.07
3533.01,8.10
3568.34,8.12
3604.02,8.15
3640.06,8.16
3676.46,8.17
3713.22,8.17
3750.36,8.16
3787.86,8.14
3825.74,8.12
3864.00,8.09
3902.64,8.04
3941.66,7.98
3981.08,7.92
4020.89,7.85
4061.10,7.77
4101.71,7.69
4142.73,7.60
4184.15,7.51
4226.00,7.41
4268.26,7.31
4310.94,7.21
4354.05,7.10
4397.59,6.98
4441.56,6.87
4485.98,6.76
4530.84,6.65
4576.15,6.54
4621.91,6.44
4668.13,6.34
4714.81,6.25
4761.96,6.17
4809.58,6.09
4857.67,6.02
4906.25,5.96
4955.31,5.91
5004.87,5.86
5054.91,5.83
5105.46,5.81
5156.52,5.80
5208.08,5.81
5260.16,5.83
5312.77,5.87
5365.89,5.93
5419.55,6.01
5473.75,6.10
5528.49,6.21
5583.77,6.34
5639.61,6.47
5696.00,6.61
5752.96,6.74
5810.49,6.87
5868.60,6.98
5927.28,7.08
5986.56,7.16
6046.42,7.22
6106.89,7.25
6167.96,7.26
6229.64,7.25
6291.93,7.22
6354.85,7.17
6418.40,7.11
6482.58,7.04
6547.41,6.95
6612.88,6.85
6679.01,6.74
6745.80,6.62
6813.26,6.50
6881.39,6.39
6950.21,6.27
7019.71,6.16
7089.91,6.06
7160.81,5.95
7232.41,5.84
7304.74,5.74
7377.79,5.66
7451.56,5.64
7526.08,5.62
7601.34,5.60
7677.35,5.53
7754.13,5.45
7831.67,5.31
7909.98,5.14
7989.08,4.93
8068.98,4.64
8149.67,4.30
8231.16,3.87
8313.47,3.30
8396.61,2.71
8480.57,2.18
8565.38,2.23
8651.03,2.44
8737.54,2.63
8824.92,2.25
8913.17,1.61
9002.30,0.90
9092.32,0.28
9183.25,-0.24
9275.08,-0.67
9367.83,-0.98
9461.51,-1.16
9556.12,-1.22
9651.68,-1.18
9748.20,-1.03
9845.68,-0.74
9944.14,-0.38
10043.58,0.07
10144.02,0.56
10245.46,1.12
10347.91,1.68
10451.39,2.25
10555.91,2.77
10661.46,3.21
10768.08,3.56
10875.76,3.74
10984.52,3.74
11094.36,3.64
11205.31,3.43
11317.36,3.12
11430.53,2.80
11544.84,2.47
11660.29,2.17
11776.89,1.88
11894.66,1.63
12013.60,1.40
12133.74,1.17
12255.08,0.95
12377.63,0.73
12501.41,0.49
12626.42,0.23
12752.68,-0.04
12880.21,-0.34
13009.01,-0.65
13139.10,-0.96
13270.49,-1.30
13403.20,-1.64
13537.23,-1.98
13672.60,-2.32
13809.33,-2.66
13947.42,-3.00
14086.90,-3.32
14227.77,-3.63
14370.04,-3.92
14513.74,-4.19
14658.88,-4.42
14805.47,-4.63
14953.52,-4.82
15103.06,-4.96
15254.09,-5.09
15406.63,-5.14
15560.70,-5.15
15716.30,-5.10
15873.47,-5.00
16032.20,-4.88
16192.52,-4.71
16354.45,-4.53
16517.99,-4.34
16683.17,-4.15
16850.01,-4.01
17018.51,-3.93
17188.69,-4.02
17360.58,-4.30
17534.18,-4.75
17709.53,-5.52
17886.62,-6.62
18065.49,-7.98
18246.14,-9.64
18428.60,-11.78
18612.89,-14.28
18799.02,-17.16
18987.01,-20.50
19176.88,-24.20
19368.65,-27.15
19562.33,-29.33
19757.96,-30.95
19955.54,-32.73
