frequency,raw
20.00,9.10
20.20,9.18
20.40,9.27
20.61,9.35
20.81,9.44
21.02,9.52
21.23,9.60
21.44,9.68
21.66,9.77
21.87,9.85
22.09,9.93
22.31,10.01
22.54,10.09
22.76,10.17
22.99,10.24
23.22,10.32
23.45,10.40
23.69,10.48
23.92,10.55
24.16,10.63
24.40,10.70
24.65,10.78
24.89,10.85
25.14,10.93
25.39,11.00
25.65,11.07
25.91,11.14
26.16,11.22
26.43,11.28
26.69,11.35
26.96,11.42
27.23,11.48
27.50,11.54
27.77,11.60
28.05,11.66
28.33,11.72
28.62,11.78
28.90,11.84
29.19,11.89
29.48,11.95
29.78,12.01
30.08,12.06
30.38,12.12
30.68,12.18
30.99,12.23
31.30,12.29
31.61,12.34
31.93,12.39
32.24,12.45
32.57,12.50
32.89,12.55
33.22,12.60
33.55,12.65
33.89,12.70
34.23,12.75
34.57,12.80
34.92,12.84
35.27,12.89
35.62,12.94
35.97,12.98
36.33,13.03
36.70,13.07
37.06,13.12
37.43,13.16
37.81,13.20
38.19,13.24
38.57,13.27
38.95,13.31
39.34,13.34
39.74,13.38
40.14,13.41
40.54,13.44
40.94,13.48
41.35,13.51
41.76,13.54
42.18,13.57
42.60,13.60
43.03,13.63
43.46,13.66
43.90,13.69
44.33,13.72
44.78,13.75
45.23,13.78
45.68,13.81
46.13,13.84
46.60,13.86
47.06,13.89
47.53,13.91
48.01,13.94
48.49,13.96
48.97,13.99
49.46,14.01
49.96,14.03
50.46,14.04
50.96,14.05
51.47,14.07
51.99,14.08
52.51,14.10
53.03,14.11
53.56,14.12
54.10,14.13
54.64,14.13
55.18,14.14
55.74,14.14
56.29,14.15
56.86,14.15
57.42,14.15
58.00,14.15
58.58,14.15
59.16,14.14
59.76,14.14
60.35,14.13
60.96,14.12
61.57,14.12
62.18,14.11
62.80,14.09
63.43,14.08
64.07,14.06
64.71,14.05
65.35,14.03
66.01,14.01
66.67,13.98
67.33,13.96
68.01,13.93
68.69,13.90
69.37,13.87
70.07,13.84
70.77,13.80
71.48,13.76
72.19,13.72
72.91,13.68
73.64,13.63
74.38,13.59
75.12,13.54
75.87,13.48
76.63,13.43
77.40,13.37
78.17,13.30
78.95,13.24
79.74,13.17
80.54,13.10
81.35,13.03
82.16,12.95
82.98,12.87
83.81,12.79
84.65,12.70
85.50,12.61
86.35,12.52
87.22,12.43
88.09,12.33
88.97,12.23
89.86,12.12
90.76,12.01
91.66,11.90
92.58,11.79
93.51,11.67
94.44,11.55
95.39,11.43
96.34,11.30
97.30,11.17
98.28,11.03
99.26,10.89
100.25,10.75
101.25,10.61
102.27,10.47
103.29,10.32
104.32,10.18
105.37,10.03
106.42,9.88
107.48,9.73
108.56,9.58
109.64,9.42
110.74,9.27
111.85,9.12
112.97,8.96
114.10,8.81
115.24,8.65
116.39,8.49
117.55,8.33
118.73,8.17
119.92,8.01
121.12,7.85
122.33,7.69
123.55,7.53
124.79,7.37
126.03,7.22
127.29,7.06
128.57,6.90
129.85,6.74
131.15,6.58
132.46,6.42
133.79,6.26
135.12,6.11
136.48,5.95
137.84,5.79
139.22,5.63
140.61,5.48
142.02,5.32
143.44,5.17
144.87,5.01
146.32,4.86
147.78,4.71
149.26,4.56
150.75,4.40
152.26,4.25
153.78,4.10
155.32,3.95
156.88,3.80
158.44,3.65
160.03,3.50
161.63,3.35
163.24,3.20
164.88,3.06
166.53,2.91
168.19,2.76
169.87,2.61
171.57,2.46
173.29,2.31
175.02,2.16
176.77,2.01
178.54,1.86
180.32,1.71
182.13,1.56
183.95,1.41
185.79,1.27
187.65,1.14
189.52,1.02
191.42,0.92
193.33,0.83
195.27,0.74
197.22,0.64
199.19,0.54
201.18,0.44
203.19,0.32
205.23,0.21
207.28,0.10
209.35,-0.00
211.44,-0.10
213.56,-0.19
215.69,-0.28
217.85,-0.36
220.03,-0.43
222.23,-0.49
224.45,-0.56
226.70,-0.62
228.96,-0.68
231.25,-0.74
233.57,-0.80
235.90,-0.86
238.26,-0.91
240.64,-0.96
243.05,-1.01
245.48,-1.06
247.93,-1.10
250.41,-1.13
252.92,-1.16
255.45,-1.19
258.00,-1.21
260.58,-1.22
263.19,-1.23
265.82,-1.24
268.48,-1.25
271.16,-1.25
273.87,-1.25
276.61,-1.24
279.38,-1.23
282.17,-1.22
284.99,-1.20
287.84,-1.18
290.72,-1.17
293.63,-1.15
296.57,-1.13
299.53,-1.11
302.53,-1.09
305.55,-1.07
308.61,-1.05
311.69,-1.03
314.81,-1.00
317.96,-0.97
321.14,-0.94
324.35,-0.91
327.59,-0.88
330.87,-0.85
334.18,-0.82
337.52,-0.80
340.90,-0.77
344.30,-0.75
347.75,-0.73
351.23,-0.71
354.74,-0.69
358.28,-0.67
361.87,-0.65
365.49,-0.64
369.14,-0.62
372.83,-0.60
376.56,-0.59
380.33,-0.57
384.13,-0.55
387.97,-0.54
391.85,-0.51
395.77,-0.49
399.73,-0.47
403.72,-0.45
407.76,-0.43
411.84,-0.41
415.96,-0.40
420.12,-0.39
424.32,-0.38
428.56,-0.37
432.85,-0.36
437.18,-0.35
441.55,-0.34
445.96,-0.33
450.42,-0.32
454.93,-0.31
459.48,-0.31
464.07,-0.30
468.71,-0.29
473.40,-0.29
478.13,-0.28
482.91,-0.28
487.74,-0.29
492.62,-0.30
497.55,-0.30
502.52,-0.32
507.55,-0.33
512.62,-0.34
517.75,-0.35
522.93,-0.36
528.16,-0.37
533.44,-0.38
538.77,-0.40
544.16,-0.41
549.60,-0.43
555.10,-0.45
560.65,-0.46
566.25,-0.48
571.92,-0.50
577.64,-0.52
583.41,-0.54
589.25,-0.56
595.14,-0.58
601.09,-0.60
607.10,-0.61
613.17,-0.63
619.30,-0.64
625.50,-0.66
631.75,-0.68
638.07,-0.70
644.45,-0.71
650.89,-0.73
657.40,-0.75
663.98,-0.76
670.62,-0.78
677.32,-0.80
684.10,-0.82
690.94,-0.83
697.85,-0.84
704.83,-0.85
711.87,-0.86
718.99,-0.87
726.18,-0.87
733.44,-0.88
740.78,-0.88
748.19,-0.88
755.67,-0.87
763.23,-0.87
770.86,-0.86
778.57,-0.85
786.35,-0.84
794.22,-0.83
802.16,-0.81
810.18,-0.80
818.28,-0.78
826.46,-0.76
834.73,-0.74
843.08,-0.72
851.51,-0.70
860.02,-0.68
868.62,-0.65
877.31,-0.62
886.08,-0.59
894.94,-0.56
903.89,-0.52
912.93,-0.48
922.06,-0.44
931.28,-0.39
940.59,-0.35
950.00,-0.29
959.50,-0.24
969.09,-0.18
978.78,-0.13
988.57,-0.07
998.46,-0.01
1008.44,0.05
1018.53,0.11
1028.71,0.17
1039.00,0.23
1049.39,0.29
1059.88,0.35
1070.48,0.40
1081.19,0.46
1092.00,0.53
1102.92,0.60
1113.95,0.67
1125.09,0.74
1136.34,0.81
1147.70,0.88
1159.18,0.95
1170.77,1.02
1182.48,1.09
1194.30,1.16
1206.25,1.24
1218.31,1.31
1230.49,1.39
1242.80,1.46
1255.22,1.54
1267.78,1.61
1280.45,1.69
1293.26,1.76
1306.19,1.83
1319.25,1.91
1332.45,1.99
1345.77,2.06
1359.23,2.12
1372.82,2.18
1386.55,2.24
1400.41,2.30
1414.42,2.37
1428.56,2.44
1442.85,2.51
1457.28,2.58
1471.85,2.65
1486.57,2.73
1501.43,2.81
1516.45,2.89
1531.61,2.97
1546.93,3.06
1562.40,3.15
1578.02,3.24
1593.80,3.33
1609.74,3.41
1625.84,3.50
1642.10,3.59
1658.52,3.69
1675.10,3.80
1691.85,3.92
1708.77,4.04
1725.86,4.15
1743.12,4.27
1760.55,4.40
1778.15,4.52
1795.94,4.65
1813.90,4.78
1832.03,4.91
1850.36,5.03
1868.86,5.15
1887.55,5.29
1906.42,5.42
1925.49,5.56
1944.74,5.70
1964.19,5.85
1983.83,6.00
2003.67,6.15
2023.71,6.30
2043.94,6.45
2064.38,6.61
2085.03,6.76
2105.88,6.92
2126.94,7.08
2148.20,7.24
2169.69,7.39
2191.38,7.55
2213.30,7.71
2235.43,7.86
2257.78,8.01
2280.36,8.17
2303.17,8.31
2326.20,8.46
2349.46,8.60
2372.95,8.74
2396.68,8.88
2420.65,9.00
2444.86,9.13
2469.31,9.25
2494.00,9.35
2518.94,9.45
2544.13,9.55
2569.57,9.63
2595.27,9.70
2621.22,9.76
2647.43,9.81
2673.90,9.84
2700.64,9.87
2727.65,9.88
2754.93,9.88
2782.48,9.87
2810.30,9.85
2838.40,9.82
2866.79,9.78
2895.46,9.74
2924.41,9.68
2953.65,9.62
2983.19,9.55
3013.02,9.47
3043.15,9.40
3073.58,9.31
3104.32,9.23
3135.36,9.14
3166.72,9.06
3198.38,8.97
3230.37,8.88
3262.67,8.80
3295.30,8.71
3328.25,8.63
3361.53,8.55
3395.15,8.48
3429.10,8.41
3463.39,8.36
3498.03,8.31
3533.01,8.26
3568.34,8.21
3604.02,8.16
3640.06,8.12
3676.46,8.09
3713.22,8.07
3750.36,8.05
3787.86,8.05
3825.74,8.04
3864.00,8.05
3902.64,8.06
3941.66,8.07
3981.08,8.09
4020.89,8.12
4061.10,8.16
4101.71,8.20
4142.73,8.25
4184.15,8.31
4226.00,8.37
4268.26,8.43
4310.94,8.49
4354.05,8.56
4397.59,8.61
4441.56,8.67
4485.98,8.71
4530.84,8.74
4576.15,8.78
4621.91,8.81
4668.13,8.84
4714.81,8.86
4761.96,8.87
4809.58,8.88
4857.67,8.87
4906.25,8.86
4955.31,8.83
5004.87,8.79
5054.91,8.74
5105.46,8.67
5156.52,8.58
5208.08,8.48
5260.16,8.35
5312.77,8.21
5365.89,8.06
5419.55,7.89
5473.75,7.70
5528.49,7.50
5583.77,7.30
5639.61,7.08
5696.00,6.87
5752.96,6.65
5810.49,6.44
5868.60,6.22
5927.28,6.02
5986.56,5.82
6046.42,5.65
6106.89,5.50
6167.96,5.36
6229.64,5.23
6291.93,5.13
6354.85,5.06
6418.40,5.00
6482.58,4.97
6547.41,4.97
6612.88,5.00
6679.01,5.07
6745.80,5.17
6813.26,5.31
6881.39,5.50
6950.21,5.74
7019.71,6.00
7089.91,6.30
7160.81,6.64
7232.41,6.98
7304.74,7.32
7377.79,7.66
7451.56,7.98
7526.08,8.27
7601.34,8.52
7677.35,8.62
7754.13,8.66
7831.67,8.38
7909.98,7.97
7989.08,7.35
8068.98,6.53
8149.67,5.62
8231.16,4.63
8313.47,3.61
8396.61,2.59
8480.57,1.58
8565.38,0.63
8651.03,-0.30
8737.54,-1.17
8824.92,-2.00
8913.17,-2.77
9002.30,-3.51
9092.32,-4.20
9183.25,-4.85
9275.08,-5.46
9367.83,-6.03
9461.51,-6.57
9556.12,-7.08
9651.68,-7.55
9748.20,-7.99
9845.68,-8.39
9944.14,-8.76
10043.58,-9.10
10144.02,-9.42
10245.46,-9.69
10347.91,-9.95
10451.39,-10.18
10555.91,-10.36
10661.46,-10.51
10768.08,-10.63
10875.76,-10.71
10984.52,-10.75
11094.36,-10.75
11205.31,-10.72
11317.36,-10.62
11430.53,-10.49
11544.84,-10.29
11660.29,-10.03
11776.89,-9.73
11894.66,-9.30
12013.60,-8.84
12133.74,-8.29
12255.08,-7.62
12377.63,-6.88
12501.41,-6.05
12626.42,-5.15
12752.68,-4.30
12880.21,-3.61
13009.01,-3.03
13139.10,-2.44
13270.49,-1.96
13403.20,-1.48
13537.23,-0.93
13672.60,-0.50
13809.33,-0.19
13947.42,-0.27
14086.90,-0.62
14227.77,-1.13
14370.04,-1.70
14513.74,-2.33
14658.88,-2.91
14805.47,-3.45
14953.52,-3.95
15103.06,-4.40
15254.09,-4.84
15406.63,-5.30
15560.70,-5.86
15716.30,-6.55
15873.47,-7.50
16032.20,-8.58
16192.52,-9.85
16354.45,-11.18
16517.99,-12.55
16683.17,-13.93
16850.01,-15.19
17018.51,-16.36
17188.69,-17.35
17360.58,-18.26
17534.18,-19.12
17709.53,-19.91
17886.62,-20.61
18065.49,-21.23
18246.14,-21.77
18428.60,-22.19
18612.89,-22.54
18799.02,-22.86
18987.01,-23.17
19176.88,-23.61
19368.65,-24.21
19562.33,-24.97
19757.96,-25.89
19955.54,-26.81
