frequency,raw
20.00,-25.57
20.20,-25.42
20.40,-25.27
20.61,-25.12
20.81,-24.96
21.02,-24.80
21.23,-24.65
21.44,-24.50
21.66,-24.35
21.87,-24.20
22.09,-24.07
22.31,-23.93
22.54,-23.81
22.76,-23.69
22.99,-23.58
23.22,-23.49
23.45,-23.40
23.69,-23.31
23.92,-23.21
24.16,-23.11
24.40,-22.99
24.65,-22.86
24.89,-22.72
25.14,-22.57
25.39,-22.41
25.65,-22.26
25.91,-22.11
26.16,-21.97
26.43,-21.82
26.69,-21.67
26.96,-21.52
27.23,-21.37
27.50,-21.22
27.77,-21.07
28.05,-20.93
28.33,-20.80
28.62,-20.68
28.90,-20.56
29.19,-20.43
29.48,-20.31
29.78,-20.15
30.08,-19.99
30.38,-19.81
30.68,-19.63
30.99,-19.47
31.30,-19.32
31.61,-19.18
31.93,-19.03
32.24,-18.88
32.57,-18.72
32.89,-18.56
33.22,-18.42
33.55,-18.30
33.89,-18.22
34.23,-18.15
34.57,-18.10
34.92,-18.03
35.27,-17.93
35.62,-17.81
35.97,-17.68
36.33,-17.54
36.70,-17.41
37.06,-17.28
37.43,-17.13
37.81,-16.97
38.19,-16.82
38.57,-16.66
38.95,-16.51
39.34,-16.36
39.74,-16.20
40.14,-16.04
40.54,-15.87
40.94,-15.71
41.35,-15.55
41.76,-15.39
42.18,-15.24
42.60,-15.08
43.03,-14.92
43.46,-14.76
43.90,-14.61
44.33,-14.48
44.78,-14.35
45.23,-14.21
45.68,-14.08
46.13,-13.94
46.60,-13.81
47.06,-13.68
47.53,-13.56
48.01,-13.43
48.49,-13.32
48.97,-13.22
49.46,-13.11
49.96,-12.95
50.46,-12.74
50.96,-12.53
51.47,-12.33
51.99,-12.15
52.51,-11.99
53.03,-11.83
53.56,-11.66
54.10,-11.49
54.64,-11.33
55.18,-11.17
55.74,-11.01
56.29,-10.84
56.86,-10.68
57.42,-10.53
58.00,-10.37
58.58,-10.22
59.16,-10.07
59.76,-9.91
60.35,-9.76
60.96,-9.60
61.57,-9.44
62.18,-9.28
62.80,-9.12
63.43,-8.96
64.07,-8.80
64.71,-8.65
65.35,-8.49
66.01,-8.33
66.67,-8.16
67.33,-7.99
68.01,-7.82
68.69,-7.66
69.37,-7.51
70.07,-7.35
70.77,-7.19
71.48,-7.03
72.19,-6.87
72.91,-6.71
73.64,-6.54
74.38,-6.38
75.12,-6.21
75.87,-6.05
76.63,-5.89
77.40,-5.73
78.17,-5.57
78.95,-5.41
79.74,-5.24
80.54,-5.08
81.35,-4.92
82.16,-4.76
82.98,-4.60
83.81,-4.44
84.65,-4.28
85.50,-4.12
86.35,-3.96
87.22,-3.81
88.09,-3.65
88.97,-3.49
89.86,-3.33
90.76,-3.18
91.66,-3.02
92.58,-2.87
93.51,-2.71
94.44,-2.56
95.39,-2.41
96.34,-2.26
97.30,-2.12
98.28,-1.97
99.26,-1.83
100.25,-1.69
101.25,-1.55
102.27,-1.41
103.29,-1.28
104.32,-1.14
105.37,-1.01
106.42,-0.88
107.48,-0.75
108.56,-0.62
109.64,-0.50
110.74,-0.38
111.85,-0.26
112.97,-0.14
114.10,-0.03
115.24,0.09
116.39,0.19
117.55,0.30
118.73,0.40
119.92,0.50
121.12,0.60
122.33,0.69
123.55,0.78
124.79,0.87
126.03,0.95
127.29,1.03
128.57,1.11
129.85,1.18
131.15,1.25
132.46,1.32
133.79,1.38
135.12,1.43
136.48,1.49
137.84,1.54
139.22,1.59
140.61,1.63
142.02,1.67
143.44,1.71
144.87,1.74
146.32,1.77
147.78,1.80
149.26,1.82
150.75,1.84
152.26,1.86
153.78,1.87
155.32,1.88
156.88,1.89
158.44,1.89
160.03,1.89
161.63,1.89
163.24,1.89
164.88,1.88
166.53,1.87
168.19,1.86
169.87,1.85
171.57,1.84
173.29,1.82
175.02,1.80
176.77,1.78
178.54,1.76
180.32,1.73
182.13,1.71
183.95,1.68
185.79,1.65
187.65,1.62
189.52,1.59
191.42,1.56
193.33,1.53
195.27,1.50
197.22,1.47
199.19,1.44
201.18,1.41
203.19,1.37
205.23,1.34
207.28,1.30
209.35,1.27
211.44,1.23
213.56,1.20
215.69,1.16
217.85,1.12
220.03,1.09
222.23,1.05
224.45,1.01
226.70,0.98
228.96,0.94
231.25,0.90
233.57,0.87
235.90,0.83
238.26,0.80
240.64,0.76
243.05,0.72
245.48,0.69
247.93,0.65
250.41,0.61
252.92,0.58
255.45,0.54
258.00,0.50
260.58,0.46
263.19,0.42
265.82,0.38
268.48,0.34
271.16,0.30
273.87,0.26
276.61,0.23
279.38,0.19
282.17,0.15
284.99,0.12
287.84,0.08
290.72,0.04
293.63,0.00
296.57,-0.04
299.53,-0.09
302.53,-0.13
305.55,-0.18
308.61,-0.22
311.69,-0.26
314.81,-0.30
317.96,-0.33
321.14,-0.36
324.35,-0.39
327.59,-0.41
330.87,-0.43
334.18,-0.45
337.52,-0.47
340.90,-0.49
344.30,-0.50
347.75,-0.52
351.23,-0.54
354.74,-0.56
358.28,-0.59
361.87,-0.62
365.49,-0.65
369.14,-0.69
372.83,-0.73
376.56,-0.77
380.33,-0.80
384.13,-0.83
387.97,-0.85
391.85,-0.87
395.77,-0.89
399.73,-0.91
403.72,-0.93
407.76,-0.96
411.84,-0.98
415.96,-1.00
420.12,-1.02
424.32,-1.04
428.56,-1.07
432.85,-1.09
437.18,-1.11
441.55,-1.12
445.96,-1.14
450.42,-1.15
454.93,-1.15
459.48,-1.12
464.07,-1.06
468.71,-0.97
473.40,-0.83
478.13,-0.65
482.91,-0.47
487.74,-0.30
492.62,-0.16
497.55,-0.06
502.52,-0.00
507.55,0.04
512.62,0.07
517.75,0.09
522.93,0.10
528.16,0.10
533.44,0.09
538.77,0.07
544.16,0.05
549.60,0.03
555.10,0.01
560.65,-0.01
566.25,-0.02
571.92,-0.03
577.64,-0.04
583.41,-0.05
589.25,-0.05
595.14,-0.05
601.09,-0.05
607.10,-0.05
613.17,-0.04
619.30,-0.03
625.50,-0.02
631.75,-0.01
638.07,-0.01
644.45,-0.01
650.89,-0.01
657.40,-0.02
663.98,-0.02
670.62,-0.02
677.32,-0.02
684.10,0.00
690.94,0.02
697.85,0.06
704.83,0.10
711.87,0.14
718.99,0.18
726.18,0.21
733.44,0.24
740.78,0.26
748.19,0.27
755.67,0.27
763.23,0.27
770.86,0.26
778.57,0.26
786.35,0.25
794.22,0.24
802.16,0.23
810.18,0.22
818.28,0.22
826.46,0.21
834.73,0.20
843.08,0.20
851.51,0.19
860.02,0.18
868.62,0.17
877.31,0.16
886.08,0.15
894.94,0.14
903.89,0.13
912.93,0.12
922.06,0.11
931.28,0.10
940.59,0.08
950.00,0.07
959.50,0.06
969.09,0.04
978.78,0.03
988.57,0.01
998.46,0.00
1008.44,-0.01
1018.53,-0.02
1028.71,-0.04
1039.00,-0.05
1049.39,-0.06
1059.88,-0.07
1070.48,-0.08
1081.19,-0.08
1092.00,-0.07
1102.92,-0.05
1113.95,-0.03
1125.09,0.01
1136.34,0.05
1147.70,0.09
1159.18,0.14
1170.77,0.19
1182.48,0.24
1194.30,0.29
1206.25,0.35
1218.31,0.41
1230.49,0.47
1242.80,0.53
1255.22,0.60
1267.78,0.66
1280.45,0.73
1293.26,0.80
1306.19,0.88
1319.25,0.95
1332.45,1.02
1345.77,1.10
1359.23,1.17
1372.82,1.24
1386.55,1.32
1400.41,1.40
1414.42,1.49
1428.56,1.58
1442.85,1.66
1457.28,1.75
1471.85,1.83
1486.57,1.92
1501.43,2.00
1516.45,2.08
1531.61,2.16
1546.93,2.23
1562.40,2.29
1578.02,2.36
1593.80,2.41
1609.74,2.47
1625.84,2.52
1642.10,2.57
1658.52,2.61
1675.10,2.65
1691.85,2.69
1708.77,2.72
1725.86,2.74
1743.12,2.76
1760.55,2.76
1778.15,2.76
1795.94,2.75
1813.90,2.73
1832.03,2.70
1850.36,2.66
1868.86,2.61
1887.55,2.54
1906.42,2.47
1925.49,2.38
1944.74,2.29
1964.19,2.19
1983.83,2.09
2003.67,1.98
2023.71,1.87
2043.94,1.75
2064.38,1.63
2085.03,1.51
2105.88,1.38
2126.94,1.26
2148.20,1.14
2169.69,1.01
2191.38,0.88
2213.30,0.77
2235.43,0.67
2257.78,0.59
2280.36,0.51
2303.17,0.45
2326.20,0.40
2349.46,0.36
2372.95,0.36
2396.68,0.37
2420.65,0.43
2444.86,0.52
2469.31,0.62
2494.00,0.77
2518.94,0.96
2544.13,1.17
2569.57,1.43
2595.27,1.72
2621.22,2.04
2647.43,2.40
2673.90,2.80
2700.64,3.22
2727.65,3.68
2754.93,4.15
2782.48,4.64
2810.30,5.15
2838.40,5.67
2866.79,6.21
2895.46,6.75
2924.41,7.29
2953.65,7.83
2983.19,8.34
3013.02,8.82
3043.15,9.26
3073.58,9.62
3104.32,9.92
3135.36,10.13
3166.72,10.25
3198.38,10.29
3230.37,10.11
3262.67,9.85
3295.30,9.47
3328.25,9.06
3361.53,8.64
3395.15,8.20
3429.10,7.72
3463.39,7.33
3498.03,7.08
3533.01,7.08
3568.34,7.12
3604.02,7.16
3640.06,7.16
3676.46,7.13
3713.22,7.08
3750.36,7.02
3787.86,6.95
3825.74,6.88
3864.00,6.81
3902.64,6.75
3941.66,6.69
3981.08,6.64
4020.89,6.60
4061.10,6.56
4101.71,6.54
4142.73,6.53
4184.15,6.53
4226.00,6.54
4268.26,6.56
4310.94,6.59
4354.05,6.64
4397.59,6.69
4441.56,6.75
4485.98,6.82
4530.84,6.90
4576.15,6.99
4621.91,7.10
4668.13,7.21
4714.81,7.33
4761.96,7.46
4809.58,7.59
4857.67,7.73
4906.25,7.89
4955.31,8.05
5004.87,8.21
5054.91,8.37
5105.46,8.52
5156.52,8.66
5208.08,8.80
5260.16,8.91
5312.77,9.00
5365.89,9.02
5419.55,9.00
5473.75,8.97
5528.49,8.95
5583.77,8.97
5639.61,9.01
5696.00,9.07
5752.96,9.17
5810.49,9.28
5868.60,9.42
5927.28,9.53
5986.56,9.63
6046.42,9.69
6106.89,9.72
6167.96,9.72
6229.64,9.73
6291.93,9.73
6354.85,9.74
6418.40,9.75
6482.58,9.73
6547.41,9.70
6612.88,9.66
6679.01,9.61
6745.80,9.60
6813.26,9.59
6881.39,9.61
6950.21,9.58
7019.71,9.52
7089.91,9.43
7160.81,9.36
7232.41,9.30
7304.74,9.25
7377.79,9.19
7451.56,9.09
7526.08,8.92
7601.34,8.69
7677.35,8.35
7754.13,7.97
7831.67,7.44
7909.98,6.89
7989.08,6.28
8068.98,5.77
8149.67,5.38
8231.16,5.18
8313.47,5.33
8396.61,5.65
8480.57,6.23
8565.38,6.77
8651.03,7.21
8737.54,7.52
8824.92,7.66
8913.17,7.64
9002.30,7.57
9092.32,7.35
9183.25,7.04
9275.08,6.66
9367.83,6.21
9461.51,5.66
9556.12,5.06
9651.68,4.43
9748.20,3.82
9845.68,3.33
9944.14,2.98
10043.58,2.79
10144.02,2.74
10245.46,2.92
10347.91,3.17
10451.39,3.47
10555.91,3.74
10661.46,3.92
10768.08,4.00
10875.76,3.89
10984.52,3.57
11094.36,3.08
11205.31,2.31
11317.36,1.03
11430.53,-0.42
11544.84,-1.90
11660.29,-3.08
11776.89,-3.83
11894.66,-3.89
12013.60,-3.89
12133.74,-4.02
12255.08,-4.30
12377.63,-4.63
12501.41,-4.89
12626.42,-5.04
12752.68,-5.11
12880.21,-5.00
13009.01,-4.79
13139.10,-4.58
13270.49,-4.19
13403.20,-3.80
13537.23,-3.48
13672.60,-3.23
13809.33,-3.05
13947.42,-2.94
14086.90,-2.88
14227.77,-2.87
14370.04,-3.02
14513.74,-3.38
14658.88,-4.12
14805.47,-4.98
14953.52,-6.03
15103.06,-7.07
15254.09,-8.11
15406.63,-8.83
15560.70,-9.39
15716.30,-9.71
15873.47,-9.87
16032.20,-9.99
16192.52,-10.08
16354.45,-10.17
16517.99,-10.26
16683.17,-10.26
16850.01,-10.15
17018.51,-9.98
17188.69,-9.82
17360.58,-9.83
17534.18,-9.99
17709.53,-10.45
17886.62,-11.28
18065.49,-12.39
18246.14,-13.77
18428.60,-15.25
18612.89,-16.61
18799.02,-17.89
18987.01,-19.14
19176.88,-20.54
19368.65,-22.00
19562.33,-23.43
19757.96,-24.77
19955.54,-26.12
