frequency,raw
20.00,-5.47
20.20,-5.38
20.40,-5.28
20.61,-5.19
20.81,-5.10
21.02,-5.00
21.23,-4.91
21.44,-4.81
21.66,-4.72
21.87,-4.63
22.09,-4.53
22.31,-4.44
22.54,-4.35
22.76,-4.26
22.99,-4.17
23.22,-4.08
23.45,-3.99
23.69,-3.91
23.92,-3.82
24.16,-3.73
24.40,-3.64
24.65,-3.55
24.89,-3.47
25.14,-3.38
25.39,-3.30
25.65,-3.22
25.91,-3.14
26.16,-3.06
26.43,-2.98
26.69,-2.90
26.96,-2.82
27.23,-2.74
27.50,-2.67
27.77,-2.60
28.05,-2.53
28.33,-2.46
28.62,-2.39
28.90,-2.33
29.19,-2.26
29.48,-2.20
29.78,-2.13
30.08,-2.06
30.38,-1.99
30.68,-1.93
30.99,-1.86
31.30,-1.80
31.61,-1.74
31.93,-1.67
32.24,-1.61
32.57,-1.54
32.89,-1.48
33.22,-1.41
33.55,-1.35
33.89,-1.29
34.23,-1.23
34.57,-1.17
34.92,-1.11
35.27,-1.05
35.62,-0.99
35.97,-0.93
36.33,-0.87
36.70,-0.81
37.06,-0.75
37.43,-0.69
37.81,-0.64
38.19,-0.59
38.57,-0.54
38.95,-0.49
39.34,-0.44
39.74,-0.40
40.14,-0.35
40.54,-0.30
40.94,-0.25
41.35,-0.21
41.76,-0.16
42.18,-0.12
42.60,-0.07
43.03,-0.03
43.46,0.02
43.90,0.06
44.33,0.11
44.78,0.16
45.23,0.20
45.68,0.25
46.13,0.29
46.60,0.33
47.06,0.38
47.53,0.42
48.01,0.46
48.49,0.50
48.97,0.54
49.46,0.58
49.96,0.62
50.46,0.66
50.96,0.70
51.47,0.74
51.99,0.77
52.51,0.80
53.03,0.84
53.56,0.87
54.10,0.90
54.64,0.93
55.18,0.96
55.74,0.99
56.29,1.02
56.86,1.05
57.42,1.08
58.00,1.11
58.58,1.14
59.16,1.16
59.76,1.19
60.35,1.22
60.96,1.24
61.57,1.27
62.18,1.29
62.80,1.31
63.43,1.33
64.07,1.36
64.71,1.38
65.35,1.40
66.01,1.42
66.67,1.44
67.33,1.46
68.01,1.48
68.69,1.49
69.37,1.51
70.07,1.52
70.77,1.54
71.48,1.55
72.19,1.57
72.91,1.58
73.64,1.59
74.38,1.60
75.12,1.61
75.87,1.62
76.63,1.63
77.40,1.64
78.17,1.64
78.95,1.65
79.74,1.66
80.54,1.66
81.35,1.66
82.16,1.67
82.98,1.67
83.81,1.67
84.65,1.67
85.50,1.67
86.35,1.66
87.22,1.66
88.09,1.66
88.97,1.65
89.86,1.65
90.76,1.64
91.66,1.63
92.58,1.62
93.51,1.61
94.44,1.60
95.39,1.58
96.34,1.57
97.30,1.55
98.28,1.53
99.26,1.50
100.25,1.48
101.25,1.46
102.27,1.44
103.29,1.41
104.32,1.39
105.37,1.36
106.42,1.33
107.48,1.30
108.56,1.27
109.64,1.24
110.74,1.21
111.85,1.18
112.97,1.14
114.10,1.11
115.24,1.07
116.39,1.03
117.55,0.99
118.73,0.95
119.92,0.91
121.12,0.87
122.33,0.83
123.55,0.78
124.79,0.73
126.03,0.69
127.29,0.64
128.57,0.59
129.85,0.54
131.15,0.49
132.46,0.43
133.79,0.38
135.12,0.33
136.48,0.27
137.84,0.21
139.22,0.15
140.61,0.09
142.02,0.04
143.44,-0.02
144.87,-0.07
146.32,-0.13
147.78,-0.19
149.26,-0.25
150.75,-0.31
152.26,-0.38
153.78,-0.44
155.32,-0.51
156.88,-0.57
158.44,-0.64
160.03,-0.71
161.63,-0.78
163.24,-0.84
164.88,-0.91
166.53,-0.98
168.19,-1.05
169.87,-1.12
171.57,-1.19
173.29,-1.26
175.02,-1.33
176.77,-1.41
178.54,-1.48
180.32,-1.55
182.13,-1.63
183.95,-1.70
185.79,-1.77
187.65,-1.84
189.52,-1.92
191.42,-1.98
193.33,-2.05
195.27,-2.12
197.22,-2.18
199.19,-2.25
201.18,-2.31
203.19,-2.37
205.23,-2.42
207.28,-2.48
209.35,-2.54
211.44,-2.59
213.56,-2.65
215.69,-2.70
217.85,-2.76
220.03,-2.81
222.23,-2.87
224.45,-2.92
226.70,-2.97
228.96,-3.02
231.25,-3.06
233.57,-3.11
235.90,-3.14
238.26,-3.18
240.64,-3.20
243.05,-3.22
245.48,-3.23
247.93,-3.24
250.41,-3.24
252.92,-3.23
255.45,-3.21
258.00,-3.19
260.58,-3.17
263.19,-3.14
265.82,-3.12
268.48,-3.09
271.16,-3.07
273.87,-3.05
276.61,-3.03
279.38,-3.00
282.17,-2.98
284.99,-2.96
287.84,-2.93
290.72,-2.90
293.63,-2.88
296.57,-2.85
299.53,-2.82
302.53,-2.79
305.55,-2.76
308.61,-2.73
311.69,-2.70
314.81,-2.67
317.96,-2.63
321.14,-2.60
324.35,-2.56
327.59,-2.52
330.87,-2.49
334.18,-2.45
337.52,-2.41
340.90,-2.37
344.30,-2.34
347.75,-2.30
351.23,-2.26
354.74,-2.23
358.28,-2.19
361.87,-2.16
365.49,-2.12
369.14,-2.08
372.83,-2.05
376.56,-2.02
380.33,-1.98
384.13,-1.95
387.97,-1.92
391.85,-1.89
395.77,-1.86
399.73,-1.83
403.72,-1.80
407.76,-1.77
411.84,-1.74
415.96,-1.71
420.12,-1.69
424.32,-1.66
428.56,-1.63
432.85,-1.61
437.18,-1.58
441.55,-1.55
445.96,-1.53
450.42,-1.50
454.93,-1.47
459.48,-1.45
464.07,-1.42
468.71,-1.39
473.40,-1.37
478.13,-1.34
482.91,-1.31
487.74,-1.28
492.62,-1.26
497.55,-1.23
502.52,-1.20
507.55,-1.18
512.62,-1.15
517.75,-1.13
522.93,-1.10
528.16,-1.08
533.44,-1.06
538.77,-1.04
544.16,-1.02
549.60,-0.99
555.10,-0.97
560.65,-0.95
566.25,-0.93
571.92,-0.91
577.64,-0.88
583.41,-0.86
589.25,-0.84
595.14,-0.82
601.09,-0.79
607.10,-0.77
613.17,-0.75
619.30,-0.72
625.50,-0.69
631.75,-0.67
638.07,-0.64
644.45,-0.61
650.89,-0.59
657.40,-0.56
663.98,-0.54
670.62,-0.51
677.32,-0.49
684.10,-0.47
690.94,-0.45
697.85,-0.43
704.83,-0.42
711.87,-0.40
718.99,-0.38
726.18,-0.36
733.44,-0.35
740.78,-0.33
748.19,-0.32
755.67,-0.30
763.23,-0.29
770.86,-0.27
778.57,-0.26
786.35,-0.24
794.22,-0.23
802.16,-0.21
810.18,-0.20
818.28,-0.18
826.46,-0.17
834.73,-0.16
843.08,-0.15
851.51,-0.14
860.02,-0.13
868.62,-0.13
877.31,-0.12
886.08,-0.11
894.94,-0.11
903.89,-0.10
912.93,-0.10
922.06,-0.09
931.28,-0.08
940.59,-0.07
950.00,-0.06
959.50,-0.05
969.09,-0.04
978.78,-0.03
988.57,-0.01
998.46,-0.00
1008.44,0.01
1018.53,0.02
1028.71,0.04
1039.00,0.05
1049.39,0.07
1059.88,0.08
1070.48,0.10
1081.19,0.12
1092.00,0.14
1102.92,0.17
1113.95,0.20
1125.09,0.24
1136.34,0.27
1147.70,0.31
1159.18,0.34
1170.77,0.37
1182.48,0.41
1194.30,0.44
1206.25,0.47
1218.31,0.51
1230.49,0.55
1242.80,0.59
1255.22,0.62
1267.78,0.66
1280.45,0.70
1293.26,0.73
1306.19,0.76
1319.25,0.80
1332.45,0.83
1345.77,0.85
1359.23,0.87
1372.82,0.89
1386.55,0.91
1400.41,0.94
1414.42,0.96
1428.56,0.99
1442.85,1.01
1457.28,1.03
1471.85,1.06
1486.57,1.08
1501.43,1.09
1516.45,1.11
1531.61,1.13
1546.93,1.14
1562.40,1.15
1578.02,1.16
1593.80,1.16
1609.74,1.16
1625.84,1.16
1642.10,1.15
1658.52,1.14
1675.10,1.13
1691.85,1.11
1708.77,1.09
1725.86,1.07
1743.12,1.05
1760.55,1.04
1778.15,1.02
1795.94,1.01
1813.90,1.00
1832.03,0.99
1850.36,0.99
1868.86,0.99
1887.55,0.99
1906.42,0.99
1925.49,0.99
1944.74,0.99
1964.19,1.00
1983.83,1.00
2003.67,1.01
2023.71,1.01
2043.94,1.02
2064.38,1.03
2085.03,1.04
2105.88,1.05
2126.94,1.06
2148.20,1.08
2169.69,1.10
2191.38,1.11
2213.30,1.13
2235.43,1.15
2257.78,1.17
2280.36,1.20
2303.17,1.22
2326.20,1.24
2349.46,1.27
2372.95,1.30
2396.68,1.32
2420.65,1.35
2444.86,1.38
2469.31,1.41
2494.00,1.44
2518.94,1.48
2544.13,1.51
2569.57,1.54
2595.27,1.57
2621.22,1.60
2647.43,1.63
2673.90,1.66
2700.64,1.69
2727.65,1.72
2754.93,1.74
2782.48,1.77
2810.30,1.79
2838.40,1.81
2866.79,1.83
2895.46,1.85
2924.41,1.86
2953.65,1.88
2983.19,1.89
3013.02,1.90
3043.15,1.91
3073.58,1.93
3104.32,1.95
3135.36,1.97
3166.72,1.99
3198.38,2.02
3230.37,2.04
3262.67,2.06
3295.30,2.09
3328.25,2.12
3361.53,2.15
3395.15,2.18
3429.10,2.22
3463.39,2.27
3498.03,2.33
3533.01,2.39
3568.34,2.46
3604.02,2.53
3640.06,2.60
3676.46,2.68
3713.22,2.76
3750.36,2.85
3787.86,2.94
3825.74,3.03
3864.00,3.13
3902.64,3.23
3941.66,3.33
3981.08,3.44
4020.89,3.55
4061.10,3.66
4101.71,3.79
4142.73,3.92
4184.15,4.05
4226.00,4.19
4268.26,4.32
4310.94,4.45
4354.05,4.56
4397.59,4.66
4441.56,4.74
4485.98,4.81
4530.84,4.85
4576.15,4.86
4621.91,4.85
4668.13,4.80
4714.81,4.70
4761.96,4.58
4809.58,4.42
4857.67,4.22
4906.25,3.99
4955.31,3.73
5004.87,3.46
5054.91,3.15
5105.46,2.84
5156.52,2.51
5208.08,2.16
5260.16,1.81
5312.77,1.45
5365.89,1.10
5419.55,0.75
5473.75,0.41
5528.49,0.09
5583.77,-0.20
5639.61,-0.46
5696.00,-0.71
5752.96,-0.94
5810.49,-1.15
5868.60,-1.35
5927.28,-1.52
5986.56,-1.68
6046.42,-1.80
6106.89,-1.91
6167.96,-1.98
6229.64,-2.02
6291.93,-2.03
6354.85,-1.99
6418.40,-1.93
6482.58,-1.83
6547.41,-1.68
6612.88,-1.50
6679.01,-1.27
6745.80,-0.99
6813.26,-0.68
6881.39,-0.31
6950.21,0.10
7019.71,0.55
7089.91,1.04
7160.81,1.56
7232.41,2.09
7304.74,2.64
7377.79,3.18
7451.56,3.67
7526.08,4.08
7601.34,4.39
7677.35,4.50
7754.13,4.52
7831.67,4.18
7909.98,3.70
7989.08,3.01
8068.98,2.11
8149.67,1.13
8231.16,0.05
8313.47,-1.06
8396.61,-2.18
8480.57,-3.28
8565.38,-4.33
8651.03,-5.33
8737.54,-6.27
8824.92,-7.14
8913.17,-7.93
9002.30,-8.68
9092.32,-9.33
9183.25,-9.90
9275.08,-10.42
9367.83,-10.87
9461.51,-11.26
9556.12,-11.59
9651.68,-11.89
9748.20,-12.15
9845.68,-12.36
9944.14,-12.55
10043.58,-12.71
10144.02,-12.85
10245.46,-12.95
10347.91,-13.03
10451.39,-13.09
10555.91,-13.10
10661.46,-13.08
10768.08,-13.04
10875.76,-12.95
10984.52,-12.82
11094.36,-12.67
11205.31,-12.48
11317.36,-12.23
11430.53,-11.97
11544.84,-11.64
11660.29,-11.27
11776.89,-10.86
11894.66,-10.33
12013.60,-9.79
12133.74,-9.15
12255.08,-8.38
12377.63,-7.51
12501.41,-6.51
12626.42,-5.35
12752.68,-4.15
12880.21,-3.16
13009.01,-2.30
13139.10,-1.44
13270.49,-1.38
13403.20,-1.62
13537.23,-2.60
13672.60,-3.86
13809.33,-5.38
13947.42,-7.09
14086.90,-8.72
14227.77,-10.32
14370.04,-11.78
14513.74,-13.10
14658.88,-14.23
14805.47,-15.28
14953.52,-16.23
15103.06,-17.05
15254.09,-17.82
15406.63,-18.39
15560.70,-18.87
15716.30,-19.19
15873.47,-19.29
16032.20,-19.27
16192.52,-18.98
16354.45,-18.58
16517.99,-18.13
16683.17,-17.83
16850.01,-17.80
17018.51,-18.00
17188.69,-18.76
17360.58,-19.96
17534.18,-21.54
17709.53,-23.59
17886.62,-25.86
18065.49,-28.16
18246.14,-30.37
18428.60,-32.06
18612.89,-33.32
18799.02,-34.17
18987.01,-34.65
19176.88,-35.00
19368.65,-35.41
19562.33,-35.88
19757.96,-36.45
19955.54,-37.01
