frequency,raw
20.00,3.74
20.20,3.81
20.40,3.88
20.61,3.95
20.81,4.02
21.02,4.09
21.23,4.16
21.44,4.23
21.66,4.29
21.87,4.36
22.09,4.43
22.31,4.49
22.54,4.56
22.76,4.62
22.99,4.69
23.22,4.75
23.45,4.81
23.69,4.88
23.92,4.94
24.16,5.00
24.40,5.07
24.65,5.13
24.89,5.19
25.14,5.25
25.39,5.31
25.65,5.37
25.91,5.43
26.16,5.48
26.43,5.54
26.69,5.59
26.96,5.63
27.23,5.68
27.50,5.73
27.77,5.77
28.05,5.82
28.33,5.86
28.62,5.91
28.90,5.95
29.19,5.99
29.48,6.03
29.78,6.07
30.08,6.11
30.38,6.15
30.68,6.19
30.99,6.23
31.30,6.27
31.61,6.31
31.93,6.35
32.24,6.38
32.57,6.42
32.89,6.45
33.22,6.48
33.55,6.51
33.89,6.54
34.23,6.56
34.57,6.59
34.92,6.62
35.27,6.65
35.62,6.68
35.97,6.71
36.33,6.74
36.70,6.77
37.06,6.79
37.43,6.81
37.81,6.83
38.19,6.84
38.57,6.86
38.95,6.88
39.34,6.89
39.74,6.91
40.14,6.93
40.54,6.94
40.94,6.95
41.35,6.96
41.76,6.97
42.18,6.98
42.60,6.99
43.03,7.00
43.46,7.01
43.90,7.02
44.33,7.03
44.78,7.03
45.23,7.04
45.68,7.05
46.13,7.05
46.60,7.05
47.06,7.04
47.53,7.04
48.01,7.04
48.49,7.03
48.97,7.03
49.46,7.03
49.96,7.02
50.46,7.02
50.96,7.01
51.47,7.01
51.99,7.00
52.51,6.99
53.03,6.97
53.56,6.96
54.10,6.94
54.64,6.92
55.18,6.89
55.74,6.87
56.29,6.86
56.86,6.84
57.42,6.82
58.00,6.80
58.58,6.77
59.16,6.74
59.76,6.71
60.35,6.68
60.96,6.65
61.57,6.62
62.18,6.59
62.80,6.57
63.43,6.55
64.07,6.53
64.71,6.50
65.35,6.46
66.01,6.43
66.67,6.39
67.33,6.35
68.01,6.31
68.69,6.27
69.37,6.23
70.07,6.19
70.77,6.15
71.48,6.11
72.19,6.06
72.91,6.02
73.64,5.98
74.38,5.94
75.12,5.89
75.87,5.85
76.63,5.80
77.40,5.76
78.17,5.70
78.95,5.65
79.74,5.59
80.54,5.54
81.35,5.48
82.16,5.43
82.98,5.38
83.81,5.34
84.65,5.29
85.50,5.24
86.35,5.19
87.22,5.13
88.09,5.08
88.97,5.02
89.86,4.96
90.76,4.90
91.66,4.84
92.58,4.79
93.51,4.73
94.44,4.67
95.39,4.62
96.34,4.56
97.30,4.50
98.28,4.44
99.26,4.38
100.25,4.31
101.25,4.25
102.27,4.18
103.29,4.12
104.32,4.06
105.37,4.01
106.42,3.95
107.48,3.89
108.56,3.83
109.64,3.77
110.74,3.70
111.85,3.64
112.97,3.57
114.10,3.51
115.24,3.44
116.39,3.38
117.55,3.32
118.73,3.25
119.92,3.19
121.12,3.12
122.33,3.06
123.55,3.00
124.79,2.94
126.03,2.88
127.29,2.82
128.57,2.76
129.85,2.69
131.15,2.63
132.46,2.57
133.79,2.51
135.12,2.45
136.48,2.39
137.84,2.33
139.22,2.28
140.61,2.22
142.02,2.17
143.44,2.12
144.87,2.07
146.32,2.01
147.78,1.96
149.26,1.92
150.75,1.88
152.26,1.85
153.78,1.83
155.32,1.80
156.88,1.77
158.44,1.74
160.03,1.71
161.63,1.68
163.24,1.66
164.88,1.64
166.53,1.62
168.19,1.60
169.87,1.58
171.57,1.56
173.29,1.54
175.02,1.52
176.77,1.51
178.54,1.51
180.32,1.50
182.13,1.50
183.95,1.51
185.79,1.51
187.65,1.52
189.52,1.52
191.42,1.52
193.33,1.53
195.27,1.55
197.22,1.56
199.19,1.58
201.18,1.60
203.19,1.62
205.23,1.63
207.28,1.65
209.35,1.67
211.44,1.69
213.56,1.72
215.69,1.75
217.85,1.77
220.03,1.79
222.23,1.81
224.45,1.83
226.70,1.86
228.96,1.89
231.25,1.91
233.57,1.93
235.90,1.95
238.26,1.98
240.64,2.00
243.05,2.02
245.48,2.04
247.93,2.06
250.41,2.08
252.92,2.11
255.45,2.14
258.00,2.16
260.58,2.19
263.19,2.23
265.82,2.26
268.48,2.29
271.16,2.32
273.87,2.34
276.61,2.37
279.38,2.39
282.17,2.42
284.99,2.45
287.84,2.47
290.72,2.48
293.63,2.50
296.57,2.51
299.53,2.53
302.53,2.53
305.55,2.54
308.61,2.55
311.69,2.56
314.81,2.58
317.96,2.59
321.14,2.60
324.35,2.60
327.59,2.60
330.87,2.59
334.18,2.59
337.52,2.59
340.90,2.59
344.30,2.58
347.75,2.58
351.23,2.57
354.74,2.56
358.28,2.56
361.87,2.55
365.49,2.56
369.14,2.56
372.83,2.55
376.56,2.53
380.33,2.52
384.13,2.51
387.97,2.50
391.85,2.49
395.77,2.48
399.73,2.47
403.72,2.45
407.76,2.43
411.84,2.41
415.96,2.38
420.12,2.36
424.32,2.33
428.56,2.31
432.85,2.29
437.18,2.27
441.55,2.27
445.96,2.26
450.42,2.25
454.93,2.23
459.48,2.20
464.07,2.17
468.71,2.15
473.40,2.12
478.13,2.10
482.91,2.07
487.74,2.04
492.62,2.02
497.55,1.99
502.52,1.95
507.55,1.92
512.62,1.89
517.75,1.86
522.93,1.82
528.16,1.78
533.44,1.74
538.77,1.71
544.16,1.67
549.60,1.62
555.10,1.58
560.65,1.54
566.25,1.49
571.92,1.45
577.64,1.40
583.41,1.36
589.25,1.32
595.14,1.29
601.09,1.25
607.10,1.20
613.17,1.14
619.30,1.09
625.50,1.05
631.75,1.01
638.07,0.96
644.45,0.91
650.89,0.85
657.40,0.79
663.98,0.74
670.62,0.69
677.32,0.63
684.10,0.58
690.94,0.52
697.85,0.44
704.83,0.37
711.87,0.29
718.99,0.21
726.18,0.13
733.44,0.05
740.78,-0.04
748.19,-0.13
755.67,-0.22
763.23,-0.30
770.86,-0.40
778.57,-0.50
786.35,-0.60
794.22,-0.69
802.16,-0.79
810.18,-0.89
818.28,-0.98
826.46,-1.08
834.73,-1.15
843.08,-1.22
851.51,-1.27
860.02,-1.31
868.62,-1.33
877.31,-1.33
886.08,-1.31
894.94,-1.25
903.89,-1.19
912.93,-1.10
922.06,-1.00
931.28,-0.90
940.59,-0.78
950.00,-0.65
959.50,-0.52
969.09,-0.39
978.78,-0.26
988.57,-0.14
998.46,-0.02
1008.44,0.10
1018.53,0.22
1028.71,0.34
1039.00,0.45
1049.39,0.57
1059.88,0.69
1070.48,0.79
1081.19,0.89
1092.00,0.99
1102.92,1.10
1113.95,1.22
1125.09,1.33
1136.34,1.43
1147.70,1.52
1159.18,1.62
1170.77,1.72
1182.48,1.82
1194.30,1.93
1206.25,2.03
1218.31,2.13
1230.49,2.23
1242.80,2.33
1255.22,2.43
1267.78,2.53
1280.45,2.64
1293.26,2.74
1306.19,2.84
1319.25,2.94
1332.45,3.03
1345.77,3.13
1359.23,3.21
1372.82,3.29
1386.55,3.38
1400.41,3.47
1414.42,3.57
1428.56,3.68
1442.85,3.79
1457.28,3.89
1471.85,3.99
1486.57,4.11
1501.43,4.23
1516.45,4.36
1531.61,4.48
1546.93,4.61
1562.40,4.74
1578.02,4.88
1593.80,5.03
1609.74,5.19
1625.84,5.36
1642.10,5.54
1658.52,5.72
1675.10,5.91
1691.85,6.10
1708.77,6.30
1725.86,6.50
1743.12,6.70
1760.55,6.89
1778.15,7.08
1795.94,7.25
1813.90,7.42
1832.03,7.59
1850.36,7.75
1868.86,7.90
1887.55,8.06
1906.42,8.21
1925.49,8.37
1944.74,8.52
1964.19,8.67
1983.83,8.80
2003.67,8.92
2023.71,9.04
2043.94,9.16
2064.38,9.27
2085.03,9.38
2105.88,9.47
2126.94,9.56
2148.20,9.64
2169.69,9.71
2191.38,9.77
2213.30,9.82
2235.43,9.87
2257.78,9.91
2280.36,9.94
2303.17,9.96
2326.20,9.97
2349.46,9.98
2372.95,9.98
2396.68,9.98
2420.65,9.96
2444.86,9.94
2469.31,9.91
2494.00,9.87
2518.94,9.83
2544.13,9.78
2569.57,9.72
2595.27,9.66
2621.22,9.60
2647.43,9.53
2673.90,9.46
2700.64,9.39
2727.65,9.31
2754.93,9.22
2782.48,9.14
2810.30,9.04
2838.40,8.95
2866.79,8.85
2895.46,8.76
2924.41,8.66
2953.65,8.56
2983.19,8.47
3013.02,8.37
3043.15,8.28
3073.58,8.19
3104.32,8.10
3135.36,8.03
3166.72,7.97
3198.38,7.90
3230.37,7.85
3262.67,7.81
3295.30,7.77
3328.25,7.74
3361.53,7.71
3395.15,7.68
3429.10,7.66
3463.39,7.64
3498.03,7.63
3533.01,7.62
3568.34,7.62
3604.02,7.62
3640.06,7.62
3676.46,7.62
3713.22,7.63
3750.36,7.65
3787.86,7.67
3825.74,7.69
3864.00,7.72
3902.64,7.74
3941.66,7.76
3981.08,7.79
4020.89,7.82
4061.10,7.86
4101.71,7.89
4142.73,7.92
4184.15,7.96
4226.00,7.99
4268.26,8.03
4310.94,8.07
4354.05,8.09
4397.59,8.11
4441.56,8.12
4485.98,8.14
4530.84,8.16
4576.15,8.17
4621.91,8.18
4668.13,8.18
4714.81,8.19
4761.96,8.19
4809.58,8.18
4857.67,8.17
4906.25,8.17
4955.31,8.19
5004.87,8.22
5054.91,8.26
5105.46,8.31
5156.52,8.36
5208.08,8.42
5260.16,8.50
5312.77,8.59
5365.89,8.68
5419.55,8.76
5473.75,8.84
5528.49,8.91
5583.77,8.97
5639.61,9.03
5696.00,9.08
5752.96,9.13
5810.49,9.18
5868.60,9.21
5927.28,9.21
5986.56,9.19
6046.42,9.16
6106.89,9.12
6167.96,9.08
6229.64,9.03
6291.93,8.99
6354.85,8.96
6418.40,8.93
6482.58,8.92
6547.41,8.92
6612.88,8.95
6679.01,9.00
6745.80,9.09
6813.26,9.23
6881.39,9.43
6950.21,9.68
7019.71,9.98
7089.91,10.34
7160.81,10.80
7232.41,11.31
7304.74,11.85
7377.79,12.42
7451.56,12.99
7526.08,13.50
7601.34,13.93
7677.35,14.08
7754.13,14.10
7831.67,13.61
7909.98,12.93
7989.08,11.97
8068.98,10.80
8149.67,9.58
8231.16,8.30
8313.47,7.03
8396.61,5.77
8480.57,4.54
8565.38,3.36
8651.03,2.22
8737.54,1.15
8824.92,0.14
8913.17,-0.76
9002.30,-1.63
9092.32,-2.37
9183.25,-3.00
9275.08,-3.57
9367.83,-4.03
9461.51,-4.41
9556.12,-4.71
9651.68,-4.95
9748.20,-5.12
9845.68,-5.20
9944.14,-5.22
10043.58,-5.17
10144.02,-5.07
10245.46,-4.86
10347.91,-4.59
10451.39,-4.23
10555.91,-3.75
10661.46,-3.20
10768.08,-2.58
10875.76,-1.88
10984.52,-1.14
11094.36,-0.39
11205.31,0.38
11317.36,1.16
11430.53,1.95
11544.84,2.76
11660.29,3.60
11776.89,4.46
11894.66,5.37
12013.60,6.28
12133.74,7.15
12255.08,7.89
12377.63,8.50
12501.41,8.90
12626.42,8.95
12752.68,8.75
12880.21,8.29
13009.01,7.72
13139.10,7.15
13270.49,6.60
13403.20,6.10
13537.23,5.84
13672.60,5.75
13809.33,5.83
13947.42,6.23
14086.90,6.87
14227.77,7.67
14370.04,8.51
14513.74,9.33
14658.88,9.72
14805.47,9.78
14953.52,9.28
15103.06,8.28
15254.09,7.04
15406.63,5.52
15560.70,3.83
15716.30,1.90
15873.47,-0.84
16032.20,-4.01
16192.52,-7.99
16354.45,-12.37
16517.99,-17.02
16683.17,-22.01
16850.01,-27.04
17018.51,-31.88
17188.69,-35.05
17360.58,-36.58
17534.18,-37.07
17709.53,-37.09
17886.62,-36.79
18065.49,-36.36
18246.14,-35.84
18428.60,-35.63
18612.89,-35.75
18799.02,-36.17
18987.01,-36.86
19176.88,-37.83
19368.65,-38.95
19562.33,-40.20
19757.96,-41.51
19955.54,-42.82
