frequency,raw
20.00,3.40
20.20,3.39
20.40,3.38
20.61,3.38
20.81,3.39
21.02,3.41
21.23,3.43
21.44,3.48
21.66,3.52
21.87,3.57
22.09,3.62
22.31,3.68
22.54,3.75
22.76,3.82
22.99,3.90
23.22,3.98
23.45,4.07
23.69,4.17
23.92,4.26
24.16,4.36
24.40,4.47
24.65,4.58
24.89,4.69
25.14,4.80
25.39,4.92
25.65,5.03
25.91,5.16
26.16,5.29
26.43,5.41
26.69,5.55
26.96,5.69
27.23,5.81
27.50,5.95
27.77,6.08
28.05,6.22
28.33,6.35
28.62,6.48
28.90,6.61
29.19,6.75
29.48,6.88
29.78,7.01
30.08,7.14
30.38,7.28
30.68,7.41
30.99,7.53
31.30,7.65
31.61,7.78
31.93,7.90
32.24,8.02
32.57,8.13
32.89,8.25
33.22,8.37
33.55,8.48
33.89,8.58
34.23,8.68
34.57,8.78
34.92,8.88
35.27,8.98
35.62,9.06
35.97,9.15
36.33,9.23
36.70,9.31
37.06,9.38
37.43,9.45
37.81,9.51
38.19,9.58
38.57,9.63
38.95,9.68
39.34,9.73
39.74,9.78
40.14,9.81
40.54,9.85
40.94,9.88
41.35,9.91
41.76,9.94
42.18,9.96
42.60,9.97
43.03,9.98
43.46,9.99
43.90,10.00
44.33,10.00
44.78,9.99
45.23,9.98
45.68,9.98
46.13,9.96
46.60,9.95
47.06,9.93
47.53,9.91
48.01,9.88
48.49,9.86
48.97,9.83
49.46,9.81
49.96,9.77
50.46,9.74
50.96,9.71
51.47,9.67
51.99,9.64
52.51,9.60
53.03,9.56
53.56,9.52
54.10,9.48
54.64,9.44
55.18,9.40
55.74,9.35
56.29,9.31
56.86,9.26
57.42,9.22
58.00,9.17
58.58,9.12
59.16,9.08
59.76,9.03
60.35,8.98
60.96,8.93
61.57,8.88
62.18,8.83
62.80,8.77
63.43,8.72
64.07,8.66
64.71,8.60
65.35,8.55
66.01,8.49
66.67,8.43
67.33,8.37
68.01,8.31
68.69,8.24
69.37,8.18
70.07,8.12
70.77,8.06
71.48,8.00
72.19,7.94
72.91,7.88
73.64,7.82
74.38,7.77
75.12,7.71
75.87,7.65
76.63,7.60
77.40,7.54
78.17,7.49
78.95,7.44
79.74,7.38
80.54,7.33
81.35,7.27
82.16,7.22
82.98,7.16
83.81,7.10
84.65,7.05
85.50,6.99
86.35,6.92
87.22,6.86
88.09,6.80
88.97,6.73
89.86,6.67
90.76,6.60
91.66,6.54
92.58,6.47
93.51,6.41
94.44,6.35
95.39,6.28
96.34,6.22
97.30,6.17
98.28,6.11
99.26,6.05
100.25,6.00
101.25,5.95
102.27,5.90
103.29,5.85
104.32,5.80
105.37,5.75
106.42,5.70
107.48,5.65
108.56,5.60
109.64,5.56
110.74,5.52
111.85,5.48
112.97,5.44
114.10,5.41
115.24,5.38
116.39,5.36
117.55,5.34
118.73,5.33
119.92,5.33
121.12,5.33
122.33,5.33
123.55,5.34
124.79,5.35
126.03,5.37
127.29,5.39
128.57,5.41
129.85,5.43
131.15,5.45
132.46,5.48
133.79,5.51
135.12,5.54
136.48,5.57
137.84,5.62
139.22,5.67
140.61,5.72
142.02,5.78
143.44,5.84
144.87,5.90
146.32,5.97
147.78,6.03
149.26,6.10
150.75,6.16
152.26,6.22
153.78,6.29
155.32,6.34
156.88,6.40
158.44,6.46
160.03,6.51
161.63,6.55
163.24,6.60
164.88,6.64
166.53,6.68
168.19,6.71
169.87,6.74
171.57,6.76
173.29,6.78
175.02,6.80
176.77,6.81
178.54,6.82
180.32,6.83
182.13,6.83
183.95,6.83
185.79,6.82
187.65,6.81
189.52,6.80
191.42,6.78
193.33,6.75
195.27,6.72
197.22,6.68
199.19,6.63
201.18,6.58
203.19,6.52
205.23,6.45
207.28,6.38
209.35,6.30
211.44,6.21
213.56,6.11
215.69,6.00
217.85,5.89
220.03,5.77
222.23,5.64
224.45,5.51
226.70,5.36
228.96,5.21
231.25,5.04
233.57,4.86
235.90,4.67
238.26,4.47
240.64,4.25
243.05,4.02
245.48,3.78
247.93,3.52
250.41,3.25
252.92,2.97
255.45,2.67
258.00,2.36
260.58,2.03
263.19,1.70
265.82,1.35
268.48,0.99
271.16,0.63
273.87,0.27
276.61,-0.10
279.38,-0.47
282.17,-0.83
284.99,-1.18
287.84,-1.52
290.72,-1.85
293.63,-2.16
296.57,-2.45
299.53,-2.72
302.53,-2.96
305.55,-3.18
308.61,-3.38
311.69,-3.57
314.81,-3.73
317.96,-3.88
321.14,-4.02
324.35,-4.14
327.59,-4.25
330.87,-4.35
334.18,-4.45
337.52,-4.54
340.90,-4.62
344.30,-4.69
347.75,-4.77
351.23,-4.84
354.74,-4.92
358.28,-5.01
361.87,-5.10
365.49,-5.20
369.14,-5.32
372.83,-5.45
376.56,-5.59
380.33,-5.75
384.13,-5.92
387.97,-6.12
391.85,-6.34
395.77,-6.60
399.73,-6.88
403.72,-7.19
407.76,-7.54
411.84,-7.92
415.96,-8.33
420.12,-8.77
424.32,-9.22
428.56,-9.67
432.85,-10.10
437.18,-10.49
441.55,-10.82
445.96,-11.06
450.42,-11.22
454.93,-11.23
459.48,-11.14
464.07,-10.95
468.71,-10.64
473.40,-10.26
478.13,-9.82
482.91,-9.35
487.74,-8.86
492.62,-8.36
497.55,-7.87
502.52,-7.38
507.55,-6.92
512.62,-6.48
517.75,-6.06
522.93,-5.67
528.16,-5.32
533.44,-5.00
538.77,-4.71
544.16,-4.47
549.60,-4.27
555.10,-4.10
560.65,-4.00
566.25,-3.93
571.92,-3.91
577.64,-3.95
583.41,-4.02
589.25,-4.14
595.14,-4.30
601.09,-4.50
607.10,-4.72
613.17,-4.96
619.30,-5.22
625.50,-5.47
631.75,-5.71
638.07,-5.93
644.45,-6.10
650.89,-6.21
657.40,-6.26
663.98,-6.25
670.62,-6.17
677.32,-6.05
684.10,-5.89
690.94,-5.72
697.85,-5.54
704.83,-5.38
711.87,-5.24
718.99,-5.14
726.18,-5.09
733.44,-5.09
740.78,-5.14
748.19,-5.25
755.67,-5.42
763.23,-5.64
770.86,-5.92
778.57,-6.22
786.35,-6.54
794.22,-6.83
802.16,-7.06
810.18,-7.20
818.28,-7.18
826.46,-7.01
834.73,-6.69
843.08,-6.25
851.51,-5.72
860.02,-5.15
868.62,-4.57
877.31,-4.01
886.08,-3.47
894.94,-2.98
903.89,-2.53
912.93,-2.12
922.06,-1.77
931.28,-1.45
940.59,-1.16
950.00,-0.92
959.50,-0.70
969.09,-0.50
978.78,-0.33
988.57,-0.17
998.46,-0.02
1008.44,0.12
1018.53,0.26
1028.71,0.40
1039.00,0.55
1049.39,0.70
1059.88,0.86
1070.48,1.03
1081.19,1.20
1092.00,1.37
1102.92,1.55
1113.95,1.73
1125.09,1.90
1136.34,2.07
1147.70,2.23
1159.18,2.38
1170.77,2.51
1182.48,2.64
1194.30,2.75
1206.25,2.85
1218.31,2.93
1230.49,3.01
1242.80,3.09
1255.22,3.18
1267.78,3.27
1280.45,3.38
1293.26,3.51
1306.19,3.66
1319.25,3.82
1332.45,4.00
1345.77,4.17
1359.23,4.32
1372.82,4.46
1386.55,4.55
1400.41,4.58
1414.42,4.57
1428.56,4.49
1442.85,4.35
1457.28,4.17
1471.85,3.95
1486.57,3.72
1501.43,3.49
1516.45,3.28
1531.61,3.09
1546.93,2.93
1562.40,2.77
1578.02,2.59
1593.80,2.39
1609.74,2.12
1625.84,1.81
1642.10,1.47
1658.52,1.17
1675.10,0.96
1691.85,0.85
1708.77,0.90
1725.86,1.00
1743.12,1.09
1760.55,1.11
1778.15,1.01
1795.94,0.85
1813.90,0.77
1832.03,0.96
1850.36,1.68
1868.86,2.78
1887.55,4.10
1906.42,5.40
1925.49,6.49
1944.74,7.39
1964.19,8.06
1983.83,8.51
2003.67,8.87
2023.71,9.20
2043.94,9.58
2064.38,10.04
2085.03,10.56
2105.88,11.06
2126.94,11.48
2148.20,11.75
2169.69,11.88
2191.38,11.91
2213.30,11.90
2235.43,11.96
2257.78,12.10
2280.36,12.35
2303.17,12.56
2326.20,12.69
2349.46,12.60
2372.95,12.31
2396.68,11.93
2420.65,11.58
2444.86,11.50
2469.31,11.66
2494.00,11.97
2518.94,12.23
2544.13,12.31
2569.57,12.19
2595.27,11.94
2621.22,11.73
2647.43,11.75
2673.90,11.97
2700.64,12.31
2727.65,12.53
2754.93,12.58
2782.48,12.46
2810.30,12.16
2838.40,11.90
2866.79,11.73
2895.46,11.73
2924.41,11.75
2953.65,11.68
2983.19,11.42
3013.02,10.95
3043.15,10.33
3073.58,9.71
3104.32,9.25
3135.36,9.08
3166.72,9.07
3198.38,9.09
3230.37,8.96
3262.67,8.65
3295.30,8.22
3328.25,7.73
3361.53,7.35
3395.15,7.04
3429.10,6.80
3463.39,6.48
3498.03,6.03
3533.01,5.46
3568.34,4.78
3604.02,4.17
3640.06,3.74
3676.46,3.53
3713.22,3.54
3750.36,3.88
3787.86,4.44
3825.74,5.17
3864.00,5.96
3902.64,6.79
3941.66,7.66
3981.08,8.62
4020.89,9.54
4061.10,10.39
4101.71,11.12
4142.73,11.79
4184.15,12.43
4226.00,13.03
4268.26,13.55
4310.94,14.03
4354.05,14.49
4397.59,14.98
4441.56,15.44
4485.98,15.86
4530.84,16.24
4576.15,16.61
4621.91,16.97
4668.13,17.29
4714.81,17.58
4761.96,17.83
4809.58,18.06
4857.67,18.27
4906.25,18.42
4955.31,18.52
5004.87,18.56
5054.91,18.56
5105.46,18.53
5156.52,18.42
5208.08,18.26
5260.16,18.07
5312.77,17.85
5365.89,17.58
5419.55,17.26
5473.75,16.95
5528.49,16.64
5583.77,16.30
5639.61,15.91
5696.00,15.57
5752.96,15.22
5810.49,14.85
5868.60,14.44
5927.28,14.05
5986.56,13.65
6046.42,13.21
6106.89,12.75
6167.96,12.30
6229.64,11.86
6291.93,11.41
6354.85,10.98
6418.40,10.55
6482.58,10.15
6547.41,9.78
6612.88,9.44
6679.01,9.16
6745.80,9.00
6813.26,8.95
6881.39,9.00
6950.21,9.20
7019.71,9.49
7089.91,9.83
7160.81,10.19
7232.41,10.52
7304.74,10.79
7377.79,10.98
7451.56,11.05
7526.08,10.99
7601.34,10.79
7677.35,10.44
7754.13,9.95
7831.67,9.27
7909.98,8.45
7989.08,7.49
8068.98,6.36
8149.67,5.11
8231.16,3.75
8313.47,2.28
8396.61,0.71
8480.57,-0.96
8565.38,-2.74
8651.03,-4.63
8737.54,-6.55
8824.92,-8.24
8913.17,-9.20
9002.30,-8.99
9092.32,-7.99
9183.25,-6.61
9275.08,-5.34
9367.83,-4.33
9461.51,-3.58
9556.12,-3.07
9651.68,-2.84
9748.20,-2.78
9845.68,-2.87
9944.14,-3.12
10043.58,-3.43
10144.02,-3.77
10245.46,-4.04
10347.91,-4.22
10451.39,-4.26
10555.91,-4.16
10661.46,-3.97
10768.08,-3.73
10875.76,-3.47
10984.52,-3.20
11094.36,-2.92
11205.31,-2.62
11317.36,-2.29
11430.53,-1.95
11544.84,-1.64
11660.29,-1.37
11776.89,-1.18
11894.66,-1.10
12013.60,-1.12
12133.74,-1.27
12255.08,-1.61
12377.63,-2.14
12501.41,-2.85
12626.42,-3.84
12752.68,-5.05
12880.21,-6.51
13009.01,-8.19
13139.10,-10.00
13270.49,-11.97
13403.20,-14.07
13537.23,-16.32
13672.60,-18.70
13809.33,-20.70
13947.42,-22.17
14086.90,-22.06
14227.77,-21.40
14370.04,-20.43
14513.74,-19.37
14658.88,-18.26
14805.47,-17.01
14953.52,-15.53
15103.06,-13.65
15254.09,-11.36
15406.63,-8.90
15560.70,-6.60
15716.30,-4.85
15873.47,-3.71
16032.20,-3.12
16192.52,-2.93
16354.45,-3.27
16517.99,-4.01
16683.17,-5.11
16850.01,-6.48
17018.51,-7.88
17188.69,-9.26
17360.58,-10.47
17534.18,-11.61
17709.53,-12.73
17886.62,-13.92
18065.49,-15.16
18246.14,-16.49
18428.60,-17.85
18612.89,-19.15
18799.02,-20.06
18987.01,-20.81
19176.88,-21.53
19368.65,-22.44
19562.33,-23.54
19757.96,-24.85
19955.54,-26.50
