frequency,raw
20.00,2.02
20.20,2.10
20.40,2.18
20.61,2.24
20.81,2.32
21.02,2.41
21.23,2.46
21.44,2.54
21.66,2.61
21.87,2.68
22.09,2.75
22.31,2.82
22.54,2.89
22.76,2.95
22.99,3.02
23.22,3.08
23.45,3.15
23.69,3.22
23.92,3.29
24.16,3.36
24.40,3.44
24.65,3.50
24.89,3.56
25.14,3.62
25.39,3.68
25.65,3.73
25.91,3.80
26.16,3.86
26.43,3.92
26.69,3.99
26.96,4.05
27.23,4.11
27.50,4.17
27.77,4.23
28.05,4.28
28.33,4.34
28.62,4.40
28.90,4.46
29.19,4.52
29.48,4.57
29.78,4.62
30.08,4.68
30.38,4.73
30.68,4.79
30.99,4.84
31.30,4.89
31.61,4.95
31.93,5.01
32.24,5.06
32.57,5.11
32.89,5.16
33.22,5.22
33.55,5.27
33.89,5.32
34.23,5.37
34.57,5.43
34.92,5.48
35.27,5.53
35.62,5.58
35.97,5.63
36.33,5.68
36.70,5.74
37.06,5.79
37.43,5.84
37.81,5.88
38.19,5.93
38.57,5.97
38.95,6.01
39.34,6.06
39.74,6.10
40.14,6.15
40.54,6.19
40.94,6.24
41.35,6.28
41.76,6.32
42.18,6.36
42.60,6.41
43.03,6.44
43.46,6.48
43.90,6.51
44.33,6.54
44.78,6.56
45.23,6.59
45.68,6.61
46.13,6.63
46.60,6.64
47.06,6.66
47.53,6.67
48.01,6.67
48.49,6.68
48.97,6.68
49.46,6.68
49.96,6.67
50.46,6.66
50.96,6.65
51.47,6.64
51.99,6.62
52.51,6.60
53.03,6.58
53.56,6.55
54.10,6.53
54.64,6.50
55.18,6.47
55.74,6.43
56.29,6.40
56.86,6.37
57.42,6.33
58.00,6.30
58.58,6.26
59.16,6.22
59.76,6.18
60.35,6.13
60.96,6.09
61.57,6.05
62.18,6.00
62.80,5.95
63.43,5.90
64.07,5.85
64.71,5.80
65.35,5.74
66.01,5.68
66.67,5.62
67.33,5.56
68.01,5.49
68.69,5.42
69.37,5.34
70.07,5.26
70.77,5.18
71.48,5.09
72.19,5.00
72.91,4.91
73.64,4.81
74.38,4.71
75.12,4.61
75.87,4.50
76.63,4.40
77.40,4.29
78.17,4.19
78.95,4.09
79.74,3.98
80.54,3.88
81.35,3.78
82.16,3.68
82.98,3.59
83.81,3.50
84.65,3.41
85.50,3.32
86.35,3.23
87.22,3.15
88.09,3.07
88.97,2.99
89.86,2.91
90.76,2.83
91.66,2.75
92.58,2.67
93.51,2.59
94.44,2.51
95.39,2.43
96.34,2.35
97.30,2.28
98.28,2.21
99.26,2.14
100.25,2.08
101.25,2.02
102.27,1.97
103.29,1.92
104.32,1.88
105.37,1.84
106.42,1.81
107.48,1.78
108.56,1.75
109.64,1.72
110.74,1.69
111.85,1.66
112.97,1.63
114.10,1.59
115.24,1.55
116.39,1.51
117.55,1.46
118.73,1.42
119.92,1.37
121.12,1.32
122.33,1.28
123.55,1.23
124.79,1.18
126.03,1.12
127.29,1.07
128.57,1.02
129.85,0.96
131.15,0.90
132.46,0.84
133.79,0.76
135.12,0.69
136.48,0.60
137.84,0.50
139.22,0.40
140.61,0.30
142.02,0.19
143.44,0.07
144.87,-0.05
146.32,-0.17
147.78,-0.29
149.26,-0.42
150.75,-0.55
152.26,-0.69
153.78,-0.84
155.32,-1.00
156.88,-1.16
158.44,-1.35
160.03,-1.54
161.63,-1.73
163.24,-1.94
164.88,-2.14
166.53,-2.35
168.19,-2.56
169.87,-2.76
171.57,-2.96
173.29,-3.16
175.02,-3.36
176.77,-3.56
178.54,-3.75
180.32,-3.95
182.13,-4.14
183.95,-4.33
185.79,-4.51
187.65,-4.68
189.52,-4.83
191.42,-4.96
193.33,-5.07
195.27,-5.16
197.22,-5.23
199.19,-5.29
201.18,-5.33
203.19,-5.35
205.23,-5.36
207.28,-5.36
209.35,-5.33
211.44,-5.29
213.56,-5.23
215.69,-5.16
217.85,-5.08
220.03,-5.00
222.23,-4.92
224.45,-4.84
226.70,-4.75
228.96,-4.66
231.25,-4.57
233.57,-4.47
235.90,-4.36
238.26,-4.25
240.64,-4.14
243.05,-4.03
245.48,-3.93
247.93,-3.84
250.41,-3.76
252.92,-3.68
255.45,-3.61
258.00,-3.54
260.58,-3.48
263.19,-3.43
265.82,-3.38
268.48,-3.34
271.16,-3.31
273.87,-3.28
276.61,-3.25
279.38,-3.22
282.17,-3.20
284.99,-3.18
287.84,-3.16
290.72,-3.16
293.63,-3.15
296.57,-3.15
299.53,-3.15
302.53,-3.16
305.55,-3.17
308.61,-3.18
311.69,-3.19
314.81,-3.20
317.96,-3.21
321.14,-3.22
324.35,-3.23
327.59,-3.23
330.87,-3.23
334.18,-3.22
337.52,-3.21
340.90,-3.20
344.30,-3.18
347.75,-3.16
351.23,-3.13
354.74,-3.10
358.28,-3.06
361.87,-3.02
365.49,-2.97
369.14,-2.93
372.83,-2.87
376.56,-2.82
380.33,-2.77
384.13,-2.72
387.97,-2.68
391.85,-2.63
395.77,-2.59
399.73,-2.56
403.72,-2.53
407.76,-2.52
411.84,-2.50
415.96,-2.50
420.12,-2.49
424.32,-2.49
428.56,-2.49
432.85,-2.50
437.18,-2.50
441.55,-2.50
445.96,-2.50
450.42,-2.50
454.93,-2.50
459.48,-2.50
464.07,-2.49
468.71,-2.48
473.40,-2.48
478.13,-2.47
482.91,-2.46
487.74,-2.45
492.62,-2.44
497.55,-2.43
502.52,-2.41
507.55,-2.40
512.62,-2.37
517.75,-2.35
522.93,-2.32
528.16,-2.29
533.44,-2.25
538.77,-2.21
544.16,-2.16
549.60,-2.11
555.10,-2.05
560.65,-2.00
566.25,-1.94
571.92,-1.87
577.64,-1.81
583.41,-1.75
589.25,-1.68
595.14,-1.62
601.09,-1.55
607.10,-1.47
613.17,-1.40
619.30,-1.32
625.50,-1.24
631.75,-1.16
638.07,-1.08
644.45,-1.00
650.89,-0.92
657.40,-0.85
663.98,-0.79
670.62,-0.73
677.32,-0.68
684.10,-0.64
690.94,-0.61
697.85,-0.59
704.83,-0.57
711.87,-0.55
718.99,-0.54
726.18,-0.53
733.44,-0.53
740.78,-0.52
748.19,-0.52
755.67,-0.51
763.23,-0.51
770.86,-0.51
778.57,-0.50
786.35,-0.50
794.22,-0.49
802.16,-0.48
810.18,-0.47
818.28,-0.46
826.46,-0.44
834.73,-0.42
843.08,-0.40
851.51,-0.38
860.02,-0.36
868.62,-0.33
877.31,-0.31
886.08,-0.29
894.94,-0.26
903.89,-0.24
912.93,-0.22
922.06,-0.20
931.28,-0.18
940.59,-0.16
950.00,-0.13
959.50,-0.11
969.09,-0.09
978.78,-0.06
988.57,-0.03
998.46,-0.00
1008.44,0.03
1018.53,0.06
1028.71,0.09
1039.00,0.13
1049.39,0.17
1059.88,0.21
1070.48,0.25
1081.19,0.30
1092.00,0.34
1102.92,0.39
1113.95,0.44
1125.09,0.49
1136.34,0.55
1147.70,0.60
1159.18,0.66
1170.77,0.72
1182.48,0.78
1194.30,0.84
1206.25,0.90
1218.31,0.97
1230.49,1.04
1242.80,1.11
1255.22,1.18
1267.78,1.26
1280.45,1.34
1293.26,1.42
1306.19,1.50
1319.25,1.58
1332.45,1.67
1345.77,1.75
1359.23,1.84
1372.82,1.93
1386.55,2.03
1400.41,2.12
1414.42,2.22
1428.56,2.32
1442.85,2.42
1457.28,2.52
1471.85,2.63
1486.57,2.73
1501.43,2.84
1516.45,2.95
1531.61,3.07
1546.93,3.18
1562.40,3.30
1578.02,3.42
1593.80,3.55
1609.74,3.67
1625.84,3.80
1642.10,3.93
1658.52,4.07
1675.10,4.21
1691.85,4.35
1708.77,4.50
1725.86,4.65
1743.12,4.80
1760.55,4.96
1778.15,5.12
1795.94,5.29
1813.90,5.45
1832.03,5.62
1850.36,5.80
1868.86,5.98
1887.55,6.15
1906.42,6.34
1925.49,6.52
1944.74,6.71
1964.19,6.90
1983.83,7.09
2003.67,7.28
2023.71,7.46
2043.94,7.65
2064.38,7.84
2085.03,8.02
2105.88,8.20
2126.94,8.37
2148.20,8.54
2169.69,8.70
2191.38,8.86
2213.30,9.00
2235.43,9.14
2257.78,9.26
2280.36,9.38
2303.17,9.48
2326.20,9.58
2349.46,9.67
2372.95,9.74
2396.68,9.81
2420.65,9.87
2444.86,9.92
2469.31,9.97
2494.00,10.01
2518.94,10.05
2544.13,10.08
2569.57,10.11
2595.27,10.14
2621.22,10.16
2647.43,10.19
2673.90,10.22
2700.64,10.24
2727.65,10.27
2754.93,10.30
2782.48,10.33
2810.30,10.35
2838.40,10.38
2866.79,10.41
2895.46,10.43
2924.41,10.46
2953.65,10.48
2983.19,10.50
3013.02,10.52
3043.15,10.54
3073.58,10.55
3104.32,10.56
3135.36,10.56
3166.72,10.56
3198.38,10.55
3230.37,10.53
3262.67,10.51
3295.30,10.48
3328.25,10.45
3361.53,10.41
3395.15,10.36
3429.10,10.31
3463.39,10.25
3498.03,10.19
3533.01,10.12
3568.34,10.05
3604.02,9.97
3640.06,9.89
3676.46,9.80
3713.22,9.71
3750.36,9.62
3787.86,9.52
3825.74,9.43
3864.00,9.33
3902.64,9.23
3941.66,9.13
3981.08,9.03
4020.89,8.94
4061.10,8.84
4101.71,8.74
4142.73,8.65
4184.15,8.55
4226.00,8.47
4268.26,8.38
4310.94,8.30
4354.05,8.23
4397.59,8.17
4441.56,8.11
4485.98,8.05
4530.84,8.01
4576.15,7.98
4621.91,7.96
4668.13,7.95
4714.81,7.95
4761.96,7.97
4809.58,8.01
4857.67,8.05
4906.25,8.12
4955.31,8.21
5004.87,8.31
5054.91,8.43
5105.46,8.57
5156.52,8.72
5208.08,8.88
5260.16,9.04
5312.77,9.18
5365.89,9.30
5419.55,9.36
5473.75,9.37
5528.49,9.29
5583.77,9.13
5639.61,8.89
5696.00,8.54
5752.96,8.14
5810.49,7.69
5868.60,7.19
5927.28,6.69
5986.56,6.21
6046.42,5.77
6106.89,5.38
6167.96,5.04
6229.64,4.76
6291.93,4.53
6354.85,4.36
6418.40,4.24
6482.58,4.15
6547.41,4.12
6612.88,4.11
6679.01,4.14
6745.80,4.20
6813.26,4.29
6881.39,4.39
6950.21,4.53
7019.71,4.68
7089.91,4.85
7160.81,5.04
7232.41,5.25
7304.74,5.50
7377.79,5.78
7451.56,6.07
7526.08,6.37
7601.34,6.64
7677.35,6.88
7754.13,7.08
7831.67,7.21
7909.98,7.28
7989.08,7.31
8068.98,7.24
8149.67,7.11
8231.16,6.92
8313.47,6.63
8396.61,6.28
8480.57,5.87
8565.38,5.40
8651.03,4.89
8737.54,4.35
8824.92,3.78
8913.17,3.19
9002.30,2.59
9092.32,2.00
9183.25,1.41
9275.08,0.82
9367.83,0.26
9461.51,-0.28
9556.12,-0.81
9651.68,-1.31
9748.20,-1.79
9845.68,-2.24
9944.14,-2.67
10043.58,-3.07
10144.02,-3.46
10245.46,-3.81
10347.91,-4.14
10451.39,-4.45
10555.91,-4.73
10661.46,-4.99
10768.08,-5.23
10875.76,-5.44
10984.52,-5.65
11094.36,-5.82
11205.31,-5.98
11317.36,-6.12
11430.53,-6.22
11544.84,-6.30
11660.29,-6.36
11776.89,-6.38
11894.66,-6.36
12013.60,-6.32
12133.74,-6.24
12255.08,-6.12
12377.63,-5.95
12501.41,-5.75
12626.42,-5.49
12752.68,-5.18
12880.21,-4.82
13009.01,-4.40
13139.10,-3.94
13270.49,-3.41
13403.20,-2.85
13537.23,-2.26
13672.60,-1.68
13809.33,-1.13
13947.42,-0.61
14086.90,-0.20
14227.77,0.11
14370.04,0.30
14513.74,0.33
14658.88,0.18
14805.47,-0.12
14953.52,-0.58
15103.06,-1.18
15254.09,-1.88
15406.63,-2.67
15560.70,-3.51
15716.30,-4.37
15873.47,-5.22
16032.20,-6.00
16192.52,-6.71
16354.45,-7.32
16517.99,-7.83
16683.17,-8.26
16850.01,-8.55
17018.51,-8.77
17188.69,-8.90
17360.58,-8.87
17534.18,-8.71
17709.53,-8.39
17886.62,-7.89
18065.49,-7.22
18246.14,-6.39
18428.60,-5.44
18612.89,-4.43
18799.02,-3.44
18987.01,-2.54
19176.88,-1.77
19368.65,-1.23
19562.33,-0.87
19757.96,-0.64
19955.54,-0.51
