frequency,raw
20.00,10.90
20.20,10.93
20.40,10.97
20.61,11.00
20.81,11.03
21.02,11.07
21.23,11.10
21.44,11.14
21.66,11.17
21.87,11.20
22.09,11.24
22.31,11.27
22.54,11.30
22.76,11.34
22.99,11.37
23.22,11.41
23.45,11.44
23.69,11.47
23.92,11.51
24.16,11.54
24.40,11.57
24.65,11.61
24.89,11.64
25.14,11.67
25.39,11.70
25.65,11.73
25.91,11.76
26.16,11.79
26.43,11.82
26.69,11.85
26.96,11.88
27.23,11.91
27.50,11.94
27.77,11.97
28.05,12.00
28.33,12.03
28.62,12.06
28.90,12.08
29.19,12.11
29.48,12.14
29.78,12.16
30.08,12.19
30.38,12.21
30.68,12.24
30.99,12.26
31.30,12.29
31.61,12.31
31.93,12.33
32.24,12.36
32.57,12.38
32.89,12.40
33.22,12.42
33.55,12.44
33.89,12.46
34.23,12.48
34.57,12.50
34.92,12.51
35.27,12.53
35.62,12.55
35.97,12.56
36.33,12.58
36.70,12.59
37.06,12.61
37.43,12.62
37.81,12.63
38.19,12.65
38.57,12.66
38.95,12.67
39.34,12.68
39.74,12.69
40.14,12.69
40.54,12.70
40.94,12.71
41.35,12.72
41.76,12.72
42.18,12.73
42.60,12.73
43.03,12.74
43.46,12.74
43.90,12.74
44.33,12.74
44.78,12.74
45.23,12.74
45.68,12.74
46.13,12.74
46.60,12.74
47.06,12.74
47.53,12.74
48.01,12.73
48.49,12.73
48.97,12.72
49.46,12.72
49.96,12.71
50.46,12.71
50.96,12.70
51.47,12.69
51.99,12.68
52.51,12.67
53.03,12.66
53.56,12.65
54.10,12.64
54.64,12.63
55.18,12.61
55.74,12.60
56.29,12.59
56.86,12.57
57.42,12.55
58.00,12.54
58.58,12.52
59.16,12.50
59.76,12.49
60.35,12.47
60.96,12.45
61.57,12.43
62.18,12.41
62.80,12.39
63.43,12.37
64.07,12.35
64.71,12.32
65.35,12.30
66.01,12.28
66.67,12.25
67.33,12.23
68.01,12.21
68.69,12.18
69.37,12.16
70.07,12.14
70.77,12.11
71.48,12.09
72.19,12.06
72.91,12.04
73.64,12.01
74.38,11.98
75.12,11.96
75.87,11.93
76.63,11.91
77.40,11.88
78.17,11.86
78.95,11.83
79.74,11.81
80.54,11.78
81.35,11.75
82.16,11.73
82.98,11.71
83.81,11.68
84.65,11.66
85.50,11.63
86.35,11.61
87.22,11.59
88.09,11.56
88.97,11.54
89.86,11.52
90.76,11.50
91.66,11.48
92.58,11.45
93.51,11.43
94.44,11.41
95.39,11.39
96.34,11.37
97.30,11.35
98.28,11.33
99.26,11.31
100.25,11.30
101.25,11.28
102.27,11.26
103.29,11.24
104.32,11.22
105.37,11.20
106.42,11.18
107.48,11.17
108.56,11.15
109.64,11.13
110.74,11.11
111.85,11.09
112.97,11.07
114.10,11.05
115.24,11.04
116.39,11.02
117.55,11.00
118.73,10.98
119.92,10.97
121.12,10.95
122.33,10.93
123.55,10.92
124.79,10.90
126.03,10.88
127.29,10.86
128.57,10.85
129.85,10.83
131.15,10.81
132.46,10.79
133.79,10.77
135.12,10.75
136.48,10.72
137.84,10.70
139.22,10.68
140.61,10.65
142.02,10.63
143.44,10.60
144.87,10.57
146.32,10.54
147.78,10.51
149.26,10.48
150.75,10.45
152.26,10.42
153.78,10.38
155.32,10.35
156.88,10.31
158.44,10.27
160.03,10.24
161.63,10.20
163.24,10.16
164.88,10.12
166.53,10.08
168.19,10.03
169.87,9.99
171.57,9.95
173.29,9.91
175.02,9.86
176.77,9.82
178.54,9.77
180.32,9.73
182.13,9.68
183.95,9.64
185.79,9.59
187.65,9.54
189.52,9.50
191.42,9.45
193.33,9.40
195.27,9.35
197.22,9.30
199.19,9.25
201.18,9.20
203.19,9.15
205.23,9.10
207.28,9.05
209.35,9.00
211.44,8.95
213.56,8.90
215.69,8.85
217.85,8.79
220.03,8.74
222.23,8.69
224.45,8.64
226.70,8.59
228.96,8.54
231.25,8.48
233.57,8.43
235.90,8.38
238.26,8.33
240.64,8.28
243.05,8.22
245.48,8.17
247.93,8.12
250.41,8.07
252.92,8.01
255.45,7.96
258.00,7.91
260.58,7.85
263.19,7.80
265.82,7.75
268.48,7.69
271.16,7.64
273.87,7.59
276.61,7.53
279.38,7.48
282.17,7.42
284.99,7.37
287.84,7.31
290.72,7.26
293.63,7.20
296.57,7.14
299.53,7.09
302.53,7.03
305.55,6.97
308.61,6.92
311.69,6.86
314.81,6.80
317.96,6.74
321.14,6.68
324.35,6.63
327.59,6.57
330.87,6.51
334.18,6.45
337.52,6.39
340.90,6.33
344.30,6.26
347.75,6.20
351.23,6.14
354.74,6.07
358.28,6.01
361.87,5.94
365.49,5.87
369.14,5.80
372.83,5.73
376.56,5.66
380.33,5.59
384.13,5.51
387.97,5.44
391.85,5.36
395.77,5.28
399.73,5.19
403.72,5.11
407.76,5.02
411.84,4.93
415.96,4.84
420.12,4.75
424.32,4.65
428.56,4.55
432.85,4.45
437.18,4.35
441.55,4.24
445.96,4.13
450.42,4.02
454.93,3.90
459.48,3.79
464.07,3.66
468.71,3.54
473.40,3.42
478.13,3.29
482.91,3.16
487.74,3.03
492.62,2.89
497.55,2.76
502.52,2.62
507.55,2.48
512.62,2.35
517.75,2.21
522.93,2.07
528.16,1.93
533.44,1.79
538.77,1.65
544.16,1.51
549.60,1.38
555.10,1.24
560.65,1.11
566.25,0.98
571.92,0.84
577.64,0.71
583.41,0.58
589.25,0.45
595.14,0.33
601.09,0.20
607.10,0.08
613.17,-0.04
619.30,-0.16
625.50,-0.27
631.75,-0.38
638.07,-0.48
644.45,-0.58
650.89,-0.68
657.40,-0.77
663.98,-0.85
670.62,-0.93
677.32,-1.00
684.10,-1.06
690.94,-1.11
697.85,-1.16
704.83,-1.19
711.87,-1.22
718.99,-1.24
726.18,-1.24
733.44,-1.25
740.78,-1.24
748.19,-1.23
755.67,-1.21
763.23,-1.19
770.86,-1.16
778.57,-1.13
786.35,-1.10
794.22,-1.06
802.16,-1.03
810.18,-0.99
818.28,-0.95
826.46,-0.91
834.73,-0.87
843.08,-0.83
851.51,-0.79
860.02,-0.76
868.62,-0.72
877.31,-0.68
886.08,-0.64
894.94,-0.59
903.89,-0.55
912.93,-0.51
922.06,-0.46
931.28,-0.41
940.59,-0.36
950.00,-0.31
959.50,-0.25
969.09,-0.19
978.78,-0.13
988.57,-0.07
998.46,-0.01
1008.44,0.05
1018.53,0.12
1028.71,0.19
1039.00,0.25
1049.39,0.32
1059.88,0.39
1070.48,0.46
1081.19,0.53
1092.00,0.60
1102.92,0.67
1113.95,0.74
1125.09,0.81
1136.34,0.88
1147.70,0.96
1159.18,1.04
1170.77,1.12
1182.48,1.21
1194.30,1.30
1206.25,1.40
1218.31,1.50
1230.49,1.61
1242.80,1.71
1255.22,1.82
1267.78,1.93
1280.45,2.04
1293.26,2.15
1306.19,2.26
1319.25,2.36
1332.45,2.45
1345.77,2.54
1359.23,2.62
1372.82,2.70
1386.55,2.76
1400.41,2.82
1414.42,2.88
1428.56,2.92
1442.85,2.97
1457.28,3.00
1471.85,3.04
1486.57,3.06
1501.43,3.09
1516.45,3.11
1531.61,3.14
1546.93,3.16
1562.40,3.18
1578.02,3.20
1593.80,3.22
1609.74,3.24
1625.84,3.26
1642.10,3.28
1658.52,3.31
1675.10,3.33
1691.85,3.36
1708.77,3.39
1725.86,3.42
1743.12,3.45
1760.55,3.49
1778.15,3.52
1795.94,3.56
1813.90,3.60
1832.03,3.65
1850.36,3.69
1868.86,3.74
1887.55,3.78
1906.42,3.83
1925.49,3.88
1944.74,3.94
1964.19,4.00
1983.83,4.05
2003.67,4.12
2023.71,4.18
2043.94,4.25
2064.38,4.32
2085.03,4.39
2105.88,4.47
2126.94,4.54
2148.20,4.62
2169.69,4.71
2191.38,4.79
2213.30,4.88
2235.43,4.97
2257.78,5.06
2280.36,5.16
2303.17,5.26
2326.20,5.35
2349.46,5.46
2372.95,5.56
2396.68,5.67
2420.65,5.78
2444.86,5.89
2469.31,6.00
2494.00,6.11
2518.94,6.23
2544.13,6.35
2569.57,6.47
2595.27,6.59
2621.22,6.71
2647.43,6.84
2673.90,6.96
2700.64,7.09
2727.65,7.22
2754.93,7.35
2782.48,7.47
2810.30,7.60
2838.40,7.73
2866.79,7.86
2895.46,7.99
2924.41,8.12
2953.65,8.25
2983.19,8.37
3013.02,8.50
3043.15,8.63
3073.58,8.76
3104.32,8.88
3135.36,9.01
3166.72,9.13
3198.38,9.26
3230.37,9.38
3262.67,9.50
3295.30,9.62
3328.25,9.74
3361.53,9.86
3395.15,9.98
3429.10,10.10
3463.39,10.22
3498.03,10.33
3533.01,10.45
3568.34,10.56
3604.02,10.68
3640.06,10.79
3676.46,10.91
3713.22,11.02
3750.36,11.14
3787.86,11.25
3825.74,11.37
3864.00,11.50
3902.64,11.62
3941.66,11.75
3981.08,11.89
4020.89,12.03
4061.10,12.19
4101.71,12.35
4142.73,12.52
4184.15,12.70
4226.00,12.89
4268.26,13.10
4310.94,13.31
4354.05,13.53
4397.59,13.77
4441.56,14.00
4485.98,14.24
4530.84,14.47
4576.15,14.69
4621.91,14.89
4668.13,15.06
4714.81,15.19
4761.96,15.28
4809.58,15.30
4857.67,15.27
4906.25,15.18
4955.31,15.00
5004.87,14.76
5054.91,14.47
5105.46,14.10
5156.52,13.67
5208.08,13.20
5260.16,12.70
5312.77,12.16
5365.89,11.61
5419.55,11.06
5473.75,10.50
5528.49,9.96
5583.77,9.43
5639.61,8.93
5696.00,8.45
5752.96,7.99
5810.49,7.56
5868.60,7.15
5927.28,6.76
5986.56,6.41
6046.42,6.08
6106.89,5.78
6167.96,5.50
6229.64,5.26
6291.93,5.04
6354.85,4.85
6418.40,4.71
6482.58,4.59
6547.41,4.50
6612.88,4.46
6679.01,4.46
6745.80,4.49
6813.26,4.58
6881.39,4.71
6950.21,4.89
7019.71,5.12
7089.91,5.41
7160.81,5.73
7232.41,6.08
7304.74,6.43
7377.79,6.76
7451.56,7.06
7526.08,7.23
7601.34,7.31
7677.35,7.28
7754.13,7.07
7831.67,6.74
7909.98,6.31
7989.08,5.75
8068.98,5.12
8149.67,4.43
8231.16,3.70
8313.47,2.94
8396.61,2.16
8480.57,1.37
8565.38,0.57
8651.03,-0.23
8737.54,-1.04
8824.92,-1.84
8913.17,-2.62
9002.30,-3.40
9092.32,-4.14
9183.25,-4.84
9275.08,-5.53
9367.83,-6.17
9461.51,-6.78
9556.12,-7.37
9651.68,-7.92
9748.20,-8.44
9845.68,-8.94
9944.14,-9.41
10043.58,-9.84
10144.02,-10.25
10245.46,-10.64
10347.91,-10.98
10451.39,-11.29
10555.91,-11.58
10661.46,-11.83
10768.08,-12.04
10875.76,-12.23
10984.52,-12.38
11094.36,-12.49
11205.31,-12.58
11317.36,-12.63
11430.53,-12.64
11544.84,-12.61
11660.29,-12.55
11776.89,-12.41
11894.66,-12.23
12013.60,-12.00
12133.74,-11.68
12255.08,-11.26
12377.63,-10.77
12501.41,-10.14
12626.42,-9.40
12752.68,-8.61
12880.21,-7.78
13009.01,-6.99
13139.10,-6.26
13270.49,-5.62
13403.20,-5.18
13537.23,-4.86
13672.60,-4.67
13809.33,-4.65
13947.42,-4.71
14086.90,-4.81
14227.77,-4.96
14370.04,-5.11
14513.74,-5.27
14658.88,-5.46
14805.47,-5.70
14953.52,-5.97
15103.06,-6.28
15254.09,-6.61
15406.63,-6.95
15560.70,-7.28
15716.30,-7.55
15873.47,-7.77
16032.20,-7.92
16192.52,-7.93
16354.45,-7.87
16517.99,-7.75
16683.17,-7.55
16850.01,-7.34
17018.51,-7.12
17188.69,-6.92
17360.58,-6.79
17534.18,-6.72
17709.53,-6.74
17886.62,-6.90
18065.49,-7.16
18246.14,-7.51
18428.60,-8.01
18612.89,-8.57
18799.02,-9.19
18987.01,-9.83
19176.88,-10.42
19368.65,-10.97
19562.33,-11.39
19757.96,-11.65
19955.54,-11.79
