frequency,raw
20.00,8.16
20.20,8.22
20.40,8.27
20.61,8.31
20.81,8.35
21.02,8.38
21.23,8.41
21.44,8.45
21.66,8.48
21.87,8.50
22.09,8.53
22.31,8.55
22.54,8.58
22.76,8.60
22.99,8.63
23.22,8.65
23.45,8.68
23.69,8.69
23.92,8.71
24.16,8.73
24.40,8.75
24.65,8.76
24.89,8.77
25.14,8.79
25.39,8.80
25.65,8.81
25.91,8.82
26.16,8.82
26.43,8.83
26.69,8.84
26.96,8.84
27.23,8.84
27.50,8.84
27.77,8.83
28.05,8.83
28.33,8.81
28.62,8.80
28.90,8.79
29.19,8.77
29.48,8.76
29.78,8.75
30.08,8.74
30.38,8.72
30.68,8.70
30.99,8.68
31.30,8.65
31.61,8.63
31.93,8.61
32.24,8.58
32.57,8.55
32.89,8.52
33.22,8.50
33.55,8.46
33.89,8.43
34.23,8.40
34.57,8.36
34.92,8.33
35.27,8.29
35.62,8.25
35.97,8.21
36.33,8.17
36.70,8.14
37.06,8.10
37.43,8.06
37.81,8.02
38.19,7.97
38.57,7.92
38.95,7.87
39.34,7.82
39.74,7.77
40.14,7.72
40.54,7.67
40.94,7.61
41.35,7.56
41.76,7.51
42.18,7.45
42.60,7.40
43.03,7.35
43.46,7.30
43.90,7.26
44.33,7.22
44.78,7.19
45.23,7.16
45.68,7.13
46.13,7.11
46.60,7.10
47.06,7.09
47.53,7.09
48.01,7.10
48.49,7.12
48.97,7.14
49.46,7.17
49.96,7.19
50.46,7.22
50.96,7.24
51.47,7.25
51.99,7.25
52.51,7.23
53.03,7.20
53.56,7.14
54.10,7.06
54.64,6.97
55.18,6.87
55.74,6.76
56.29,6.67
56.86,6.58
57.42,6.50
58.00,6.41
58.58,6.32
59.16,6.21
59.76,6.08
60.35,5.93
60.96,5.78
61.57,5.63
62.18,5.49
62.80,5.37
63.43,5.25
64.07,5.14
64.71,5.04
65.35,4.95
66.01,4.88
66.67,4.83
67.33,4.78
68.01,4.75
68.69,4.73
69.37,4.72
70.07,4.71
70.77,4.71
71.48,4.71
72.19,4.71
72.91,4.71
73.64,4.71
74.38,4.70
75.12,4.68
75.87,4.66
76.63,4.63
77.40,4.60
78.17,4.56
78.95,4.51
79.74,4.46
80.54,4.41
81.35,4.35
82.16,4.28
82.98,4.21
83.81,4.13
84.65,4.06
85.50,3.98
86.35,3.90
87.22,3.82
88.09,3.73
88.97,3.65
89.86,3.56
90.76,3.47
91.66,3.38
92.58,3.29
93.51,3.20
94.44,3.11
95.39,3.01
96.34,2.92
97.30,2.83
98.28,2.73
99.26,2.64
100.25,2.55
101.25,2.46
102.27,2.37
103.29,2.28
104.32,2.19
105.37,2.11
106.42,2.02
107.48,1.94
108.56,1.85
109.64,1.77
110.74,1.69
111.85,1.61
112.97,1.53
114.10,1.45
115.24,1.37
116.39,1.29
117.55,1.21
118.73,1.13
119.92,1.05
121.12,0.97
122.33,0.90
123.55,0.82
124.79,0.75
126.03,0.68
127.29,0.60
128.57,0.53
129.85,0.46
131.15,0.39
132.46,0.32
133.79,0.25
135.12,0.18
136.48,0.11
137.84,0.04
139.22,-0.03
140.61,-0.10
142.02,-0.17
143.44,-0.24
144.87,-0.31
146.32,-0.38
147.78,-0.45
149.26,-0.51
150.75,-0.57
152.26,-0.64
153.78,-0.70
155.32,-0.76
156.88,-0.83
158.44,-0.89
160.03,-0.96
161.63,-1.03
163.24,-1.10
164.88,-1.18
166.53,-1.26
168.19,-1.34
169.87,-1.42
171.57,-1.51
173.29,-1.60
175.02,-1.70
176.77,-1.80
178.54,-1.89
180.32,-1.98
182.13,-2.06
183.95,-2.13
185.79,-2.18
187.65,-2.23
189.52,-2.26
191.42,-2.30
193.33,-2.33
195.27,-2.37
197.22,-2.40
199.19,-2.44
201.18,-2.48
203.19,-2.52
205.23,-2.56
207.28,-2.61
209.35,-2.65
211.44,-2.69
213.56,-2.73
215.69,-2.77
217.85,-2.81
220.03,-2.85
222.23,-2.89
224.45,-2.94
226.70,-2.98
228.96,-3.02
231.25,-3.06
233.57,-3.10
235.90,-3.14
238.26,-3.18
240.64,-3.21
243.05,-3.24
245.48,-3.28
247.93,-3.31
250.41,-3.34
252.92,-3.37
255.45,-3.39
258.00,-3.41
260.58,-3.43
263.19,-3.45
265.82,-3.46
268.48,-3.47
271.16,-3.48
273.87,-3.49
276.61,-3.48
279.38,-3.48
282.17,-3.47
284.99,-3.45
287.84,-3.43
290.72,-3.40
293.63,-3.37
296.57,-3.34
299.53,-3.30
302.53,-3.27
305.55,-3.23
308.61,-3.19
311.69,-3.15
314.81,-3.11
317.96,-3.08
321.14,-3.04
324.35,-3.00
327.59,-2.97
330.87,-2.94
334.18,-2.91
337.52,-2.89
340.90,-2.87
344.30,-2.85
347.75,-2.84
351.23,-2.83
354.74,-2.82
358.28,-2.82
361.87,-2.82
365.49,-2.82
369.14,-2.83
372.83,-2.83
376.56,-2.82
380.33,-2.81
384.13,-2.79
387.97,-2.76
391.85,-2.72
395.77,-2.67
399.73,-2.60
403.72,-2.53
407.76,-2.46
411.84,-2.38
415.96,-2.29
420.12,-2.21
424.32,-2.12
428.56,-2.03
432.85,-1.95
437.18,-1.87
441.55,-1.79
445.96,-1.71
450.42,-1.64
454.93,-1.58
459.48,-1.52
464.07,-1.46
468.71,-1.40
473.40,-1.35
478.13,-1.29
482.91,-1.24
487.74,-1.18
492.62,-1.12
497.55,-1.07
502.52,-1.01
507.55,-0.96
512.62,-0.90
517.75,-0.85
522.93,-0.81
528.16,-0.76
533.44,-0.73
538.77,-0.70
544.16,-0.67
549.60,-0.65
555.10,-0.63
560.65,-0.62
566.25,-0.61
571.92,-0.60
577.64,-0.60
583.41,-0.59
589.25,-0.59
595.14,-0.59
601.09,-0.59
607.10,-0.59
613.17,-0.59
619.30,-0.59
625.50,-0.59
631.75,-0.59
638.07,-0.59
644.45,-0.58
650.89,-0.58
657.40,-0.58
663.98,-0.58
670.62,-0.58
677.32,-0.58
684.10,-0.58
690.94,-0.57
697.85,-0.56
704.83,-0.55
711.87,-0.53
718.99,-0.52
726.18,-0.50
733.44,-0.48
740.78,-0.45
748.19,-0.43
755.67,-0.40
763.23,-0.37
770.86,-0.35
778.57,-0.32
786.35,-0.29
794.22,-0.26
802.16,-0.23
810.18,-0.20
818.28,-0.18
826.46,-0.15
834.73,-0.13
843.08,-0.11
851.51,-0.09
860.02,-0.07
868.62,-0.06
877.31,-0.05
886.08,-0.04
894.94,-0.04
903.89,-0.03
912.93,-0.03
922.06,-0.03
931.28,-0.02
940.59,-0.02
950.00,-0.02
959.50,-0.02
969.09,-0.02
978.78,-0.01
988.57,-0.01
998.46,-0.00
1008.44,0.01
1018.53,0.03
1028.71,0.06
1039.00,0.10
1049.39,0.14
1059.88,0.19
1070.48,0.23
1081.19,0.29
1092.00,0.34
1102.92,0.38
1113.95,0.43
1125.09,0.47
1136.34,0.50
1147.70,0.53
1159.18,0.56
1170.77,0.57
1182.48,0.58
1194.30,0.58
1206.25,0.58
1218.31,0.56
1230.49,0.54
1242.80,0.51
1255.22,0.48
1267.78,0.44
1280.45,0.40
1293.26,0.35
1306.19,0.30
1319.25,0.24
1332.45,0.19
1345.77,0.14
1359.23,0.09
1372.82,0.04
1386.55,-0.00
1400.41,-0.05
1414.42,-0.09
1428.56,-0.13
1442.85,-0.16
1457.28,-0.18
1471.85,-0.20
1486.57,-0.20
1501.43,-0.20
1516.45,-0.18
1531.61,-0.15
1546.93,-0.11
1562.40,-0.06
1578.02,0.01
1593.80,0.08
1609.74,0.17
1625.84,0.25
1642.10,0.32
1658.52,0.37
1675.10,0.39
1691.85,0.37
1708.77,0.33
1725.86,0.29
1743.12,0.25
1760.55,0.24
1778.15,0.26
1795.94,0.33
1813.90,0.43
1832.03,0.54
1850.36,0.67
1868.86,0.80
1887.55,0.93
1906.42,1.06
1925.49,1.18
1944.74,1.29
1964.19,1.41
1983.83,1.53
2003.67,1.65
2023.71,1.78
2043.94,1.91
2064.38,2.03
2085.03,2.16
2105.88,2.28
2126.94,2.41
2148.20,2.53
2169.69,2.65
2191.38,2.78
2213.30,2.92
2235.43,3.07
2257.78,3.22
2280.36,3.40
2303.17,3.59
2326.20,3.80
2349.46,4.02
2372.95,4.27
2396.68,4.53
2420.65,4.79
2444.86,5.06
2469.31,5.33
2494.00,5.59
2518.94,5.83
2544.13,6.07
2569.57,6.29
2595.27,6.50
2621.22,6.70
2647.43,6.90
2673.90,7.09
2700.64,7.28
2727.65,7.47
2754.93,7.66
2782.48,7.85
2810.30,8.03
2838.40,8.22
2866.79,8.40
2895.46,8.56
2924.41,8.72
2953.65,8.87
2983.19,8.99
3013.02,9.10
3043.15,9.17
3073.58,9.21
3104.32,9.22
3135.36,9.18
3166.72,9.09
3198.38,8.96
3230.37,8.79
3262.67,8.57
3295.30,8.32
3328.25,8.05
3361.53,7.76
3395.15,7.46
3429.10,7.16
3463.39,6.87
3498.03,6.59
3533.01,6.31
3568.34,6.03
3604.02,5.73
3640.06,5.42
3676.46,5.07
3713.22,4.69
3750.36,4.28
3787.86,3.83
3825.74,3.36
3864.00,2.87
3902.64,2.36
3941.66,1.84
3981.08,1.31
4020.89,0.79
4061.10,0.28
4101.71,-0.21
4142.73,-0.68
4184.15,-1.10
4226.00,-1.45
4268.26,-1.70
4310.94,-1.84
4354.05,-1.87
4397.59,-1.75
4441.56,-1.53
4485.98,-1.22
4530.84,-0.84
4576.15,-0.43
4621.91,0.01
4668.13,0.44
4714.81,0.86
4761.96,1.21
4809.58,1.51
4857.67,1.75
4906.25,1.94
4955.31,2.09
5004.87,2.23
5054.91,2.35
5105.46,2.48
5156.52,2.60
5208.08,2.73
5260.16,2.84
5312.77,2.94
5365.89,3.03
5419.55,3.12
5473.75,3.20
5528.49,3.30
5583.77,3.41
5639.61,3.54
5696.00,3.71
5752.96,3.90
5810.49,4.11
5868.60,4.35
5927.28,4.58
5986.56,4.80
6046.42,4.99
6106.89,5.14
6167.96,5.24
6229.64,5.27
6291.93,5.26
6354.85,5.17
6418.40,5.03
6482.58,4.83
6547.41,4.57
6612.88,4.26
6679.01,3.93
6745.80,3.60
6813.26,3.31
6881.39,3.08
6950.21,2.97
7019.71,2.99
7089.91,3.12
7160.81,3.36
7232.41,3.70
7304.74,4.09
7377.79,4.52
7451.56,4.96
7526.08,5.40
7601.34,5.82
7677.35,6.21
7754.13,6.56
7831.67,6.86
7909.98,7.10
7989.08,7.28
8068.98,7.32
8149.67,7.27
8231.16,7.13
8313.47,6.85
8396.61,6.50
8480.57,6.09
8565.38,5.64
8651.03,5.20
8737.54,4.80
8824.92,4.46
8913.17,4.20
9002.30,4.05
9092.32,4.00
9183.25,4.06
9275.08,4.20
9367.83,4.39
9461.51,4.58
9556.12,4.75
9651.68,4.87
9748.20,4.92
9845.68,4.89
9944.14,4.71
10043.58,4.43
10144.02,4.04
10245.46,3.51
10347.91,2.95
10451.39,2.41
10555.91,2.00
10661.46,1.76
10768.08,1.69
10875.76,1.74
10984.52,1.80
11094.36,1.78
11205.31,1.65
11317.36,1.40
11430.53,0.98
11544.84,0.46
11660.29,-0.13
11776.89,-0.73
11894.66,-1.22
12013.60,-1.50
12133.74,-1.46
12255.08,-0.92
12377.63,-0.07
12501.41,0.98
12626.42,2.05
12752.68,2.99
12880.21,3.75
13009.01,4.29
13139.10,4.65
13270.49,4.78
13403.20,4.73
13537.23,4.53
13672.60,4.12
13809.33,3.57
13947.42,2.91
14086.90,2.09
14227.77,1.22
14370.04,0.33
14513.74,-0.51
14658.88,-1.30
14805.47,-2.03
14953.52,-2.68
15103.06,-3.22
15254.09,-3.65
15406.63,-4.00
15560.70,-4.34
15716.30,-4.75
15873.47,-5.18
16032.20,-5.56
16192.52,-5.72
16354.45,-5.55
16517.99,-5.17
16683.17,-4.62
16850.01,-4.18
17018.51,-3.91
17188.69,-3.84
17360.58,-4.09
17534.18,-4.56
17709.53,-5.21
17886.62,-5.98
18065.49,-6.63
18246.14,-6.98
18428.60,-6.98
18612.89,-6.69
18799.02,-6.17
18987.01,-5.59
19176.88,-5.04
19368.65,-4.68
19562.33,-4.44
19757.96,-4.29
19955.54,-4.17
