frequency,raw
20.00,4.33
20.20,4.31
20.40,4.29
20.61,4.26
20.81,4.24
21.02,4.22
21.23,4.19
21.44,4.17
21.66,4.15
21.87,4.13
22.09,4.11
22.31,4.08
22.54,4.06
22.76,4.05
22.99,4.03
23.22,4.01
23.45,3.99
23.69,3.97
23.92,3.95
24.16,3.94
24.40,3.92
24.65,3.91
24.89,3.89
25.14,3.88
25.39,3.87
25.65,3.86
25.91,3.85
26.16,3.84
26.43,3.82
26.69,3.81
26.96,3.80
27.23,3.79
27.50,3.78
27.77,3.78
28.05,3.77
28.33,3.76
28.62,3.75
28.90,3.75
29.19,3.74
29.48,3.73
29.78,3.73
30.08,3.72
30.38,3.72
30.68,3.71
30.99,3.71
31.30,3.70
31.61,3.69
31.93,3.69
32.24,3.68
32.57,3.67
32.89,3.67
33.22,3.66
33.55,3.65
33.89,3.65
34.23,3.64
34.57,3.63
34.92,3.62
35.27,3.61
35.62,3.60
35.97,3.59
36.33,3.58
36.70,3.57
37.06,3.56
37.43,3.55
37.81,3.54
38.19,3.53
38.57,3.52
38.95,3.51
39.34,3.50
39.74,3.50
40.14,3.49
40.54,3.48
40.94,3.48
41.35,3.48
41.76,3.47
42.18,3.47
42.60,3.47
43.03,3.47
43.46,3.48
43.90,3.49
44.33,3.49
44.78,3.50
45.23,3.51
45.68,3.53
46.13,3.54
46.60,3.56
47.06,3.58
47.53,3.60
48.01,3.62
48.49,3.64
48.97,3.66
49.46,3.69
49.96,3.71
50.46,3.74
50.96,3.77
51.47,3.79
51.99,3.82
52.51,3.85
53.03,3.88
53.56,3.91
54.10,3.93
54.64,3.96
55.18,3.99
55.74,4.02
56.29,4.05
56.86,4.08
57.42,4.11
58.00,4.14
58.58,4.16
59.16,4.19
59.76,4.21
60.35,4.23
60.96,4.26
61.57,4.28
62.18,4.30
62.80,4.33
63.43,4.35
64.07,4.37
64.71,4.39
65.35,4.40
66.01,4.42
66.67,4.43
67.33,4.45
68.01,4.46
68.69,4.48
69.37,4.49
70.07,4.50
70.77,4.51
71.48,4.52
72.19,4.53
72.91,4.54
73.64,4.55
74.38,4.55
75.12,4.56
75.87,4.57
76.63,4.57
77.40,4.58
78.17,4.58
78.95,4.58
79.74,4.59
80.54,4.59
81.35,4.59
82.16,4.59
82.98,4.59
83.81,4.59
84.65,4.59
85.50,4.59
86.35,4.59
87.22,4.58
88.09,4.58
88.97,4.57
89.86,4.57
90.76,4.56
91.66,4.55
92.58,4.54
93.51,4.53
94.44,4.52
95.39,4.51
96.34,4.49
97.30,4.48
98.28,4.46
99.26,4.44
100.25,4.42
101.25,4.40
102.27,4.38
103.29,4.35
104.32,4.32
105.37,4.30
106.42,4.27
107.48,4.23
108.56,4.20
109.64,4.17
110.74,4.13
111.85,4.09
112.97,4.05
114.10,4.01
115.24,3.96
116.39,3.91
117.55,3.86
118.73,3.81
119.92,3.76
121.12,3.71
122.33,3.65
123.55,3.59
124.79,3.53
126.03,3.47
127.29,3.40
128.57,3.34
129.85,3.27
131.15,3.20
132.46,3.13
133.79,3.05
135.12,2.98
136.48,2.90
137.84,2.82
139.22,2.74
140.61,2.65
142.02,2.57
143.44,2.48
144.87,2.39
146.32,2.30
147.78,2.21
149.26,2.11
150.75,2.02
152.26,1.92
153.78,1.82
155.32,1.72
156.88,1.62
158.44,1.51
160.03,1.41
161.63,1.30
163.24,1.19
164.88,1.08
166.53,0.97
168.19,0.86
169.87,0.74
171.57,0.63
173.29,0.52
175.02,0.40
176.77,0.29
178.54,0.17
180.32,0.06
182.13,-0.05
183.95,-0.15
185.79,-0.25
187.65,-0.35
189.52,-0.43
191.42,-0.52
193.33,-0.60
195.27,-0.67
197.22,-0.74
199.19,-0.80
201.18,-0.85
203.19,-0.90
205.23,-0.94
207.28,-0.98
209.35,-1.01
211.44,-1.04
213.56,-1.05
215.69,-1.07
217.85,-1.07
220.03,-1.07
222.23,-1.07
224.45,-1.06
226.70,-1.05
228.96,-1.03
231.25,-1.01
233.57,-0.98
235.90,-0.95
238.26,-0.91
240.64,-0.87
243.05,-0.83
245.48,-0.79
247.93,-0.74
250.41,-0.70
252.92,-0.65
255.45,-0.60
258.00,-0.55
260.58,-0.50
263.19,-0.45
265.82,-0.40
268.48,-0.35
271.16,-0.30
273.87,-0.25
276.61,-0.21
279.38,-0.16
282.17,-0.12
284.99,-0.08
287.84,-0.04
290.72,0.00
293.63,0.04
296.57,0.07
299.53,0.10
302.53,0.12
305.55,0.15
308.61,0.16
311.69,0.18
314.81,0.19
317.96,0.20
321.14,0.21
324.35,0.21
327.59,0.21
330.87,0.21
334.18,0.20
337.52,0.18
340.90,0.16
344.30,0.14
347.75,0.11
351.23,0.07
354.74,0.02
358.28,-0.04
361.87,-0.11
365.49,-0.19
369.14,-0.28
372.83,-0.37
376.56,-0.47
380.33,-0.57
384.13,-0.68
387.97,-0.79
391.85,-0.90
395.77,-1.01
399.73,-1.12
403.72,-1.24
407.76,-1.36
411.84,-1.48
415.96,-1.61
420.12,-1.75
424.32,-1.89
428.56,-2.04
432.85,-2.19
437.18,-2.35
441.55,-2.51
445.96,-2.68
450.42,-2.85
454.93,-3.01
459.48,-3.17
464.07,-3.32
468.71,-3.44
473.40,-3.55
478.13,-3.63
482.91,-3.69
487.74,-3.73
492.62,-3.74
497.55,-3.72
502.52,-3.69
507.55,-3.65
512.62,-3.60
517.75,-3.54
522.93,-3.48
528.16,-3.42
533.44,-3.36
538.77,-3.30
544.16,-3.24
549.60,-3.19
555.10,-3.14
560.65,-3.11
566.25,-3.07
571.92,-3.04
577.64,-3.01
583.41,-2.98
589.25,-2.95
595.14,-2.93
601.09,-2.90
607.10,-2.88
613.17,-2.85
619.30,-2.82
625.50,-2.79
631.75,-2.75
638.07,-2.72
644.45,-2.68
650.89,-2.63
657.40,-2.59
663.98,-2.54
670.62,-2.49
677.32,-2.43
684.10,-2.38
690.94,-2.33
697.85,-2.27
704.83,-2.21
711.87,-2.15
718.99,-2.10
726.18,-2.04
733.44,-1.99
740.78,-1.93
748.19,-1.87
755.67,-1.82
763.23,-1.76
770.86,-1.69
778.57,-1.63
786.35,-1.57
794.22,-1.51
802.16,-1.45
810.18,-1.39
818.28,-1.33
826.46,-1.27
834.73,-1.21
843.08,-1.15
851.51,-1.09
860.02,-1.03
868.62,-0.97
877.31,-0.91
886.08,-0.85
894.94,-0.78
903.89,-0.72
912.93,-0.65
922.06,-0.58
931.28,-0.51
940.59,-0.44
950.00,-0.36
959.50,-0.29
969.09,-0.21
978.78,-0.14
988.57,-0.07
998.46,-0.01
1008.44,0.05
1018.53,0.09
1028.71,0.12
1039.00,0.14
1049.39,0.15
1059.88,0.14
1070.48,0.13
1081.19,0.10
1092.00,0.06
1102.92,0.02
1113.95,-0.03
1125.09,-0.08
1136.34,-0.13
1147.70,-0.19
1159.18,-0.25
1170.77,-0.30
1182.48,-0.36
1194.30,-0.42
1206.25,-0.48
1218.31,-0.55
1230.49,-0.61
1242.80,-0.69
1255.22,-0.76
1267.78,-0.84
1280.45,-0.93
1293.26,-1.01
1306.19,-1.10
1319.25,-1.20
1332.45,-1.29
1345.77,-1.39
1359.23,-1.49
1372.82,-1.58
1386.55,-1.68
1400.41,-1.76
1414.42,-1.84
1428.56,-1.91
1442.85,-1.96
1457.28,-1.99
1471.85,-1.99
1486.57,-1.97
1501.43,-1.91
1516.45,-1.82
1531.61,-1.69
1546.93,-1.52
1562.40,-1.33
1578.02,-1.10
1593.80,-0.85
1609.74,-0.59
1625.84,-0.32
1642.10,-0.04
1658.52,0.23
1675.10,0.48
1691.85,0.73
1708.77,0.96
1725.86,1.18
1743.12,1.38
1760.55,1.57
1778.15,1.75
1795.94,1.92
1813.90,2.08
1832.03,2.24
1850.36,2.39
1868.86,2.54
1887.55,2.68
1906.42,2.82
1925.49,2.95
1944.74,3.09
1964.19,3.22
1983.83,3.35
2003.67,3.49
2023.71,3.62
2043.94,3.76
2064.38,3.89
2085.03,4.01
2105.88,4.13
2126.94,4.23
2148.20,4.33
2169.69,4.42
2191.38,4.51
2213.30,4.59
2235.43,4.67
2257.78,4.75
2280.36,4.83
2303.17,4.91
2326.20,4.98
2349.46,5.06
2372.95,5.15
2396.68,5.23
2420.65,5.32
2444.86,5.42
2469.31,5.53
2494.00,5.65
2518.94,5.80
2544.13,5.96
2569.57,6.15
2595.27,6.37
2621.22,6.60
2647.43,6.85
2673.90,7.11
2700.64,7.38
2727.65,7.63
2754.93,7.86
2782.48,8.09
2810.30,8.27
2838.40,8.43
2866.79,8.56
2895.46,8.65
2924.41,8.71
2953.65,8.74
2983.19,8.74
3013.02,8.72
3043.15,8.68
3073.58,8.63
3104.32,8.55
3135.36,8.44
3166.72,8.31
3198.38,8.15
3230.37,7.96
3262.67,7.74
3295.30,7.49
3328.25,7.22
3361.53,6.91
3395.15,6.59
3429.10,6.27
3463.39,5.93
3498.03,5.59
3533.01,5.26
3568.34,4.93
3604.02,4.61
3640.06,4.30
3676.46,4.03
3713.22,3.79
3750.36,3.65
3787.86,3.56
3825.74,3.53
3864.00,3.55
3902.64,3.60
3941.66,3.68
3981.08,3.78
4020.89,3.82
4061.10,3.79
4101.71,3.68
4142.73,3.44
4184.15,3.09
4226.00,2.67
4268.26,2.26
4310.94,1.94
4354.05,1.70
4397.59,1.56
4441.56,1.48
4485.98,1.46
4530.84,1.49
4576.15,1.53
4621.91,1.55
4668.13,1.53
4714.81,1.50
4761.96,1.60
4809.58,1.83
4857.67,2.14
4906.25,2.45
4955.31,2.77
5004.87,3.14
5054.91,3.64
5105.46,4.26
5156.52,4.98
5208.08,5.74
5260.16,6.49
5312.77,7.20
5365.89,7.83
5419.55,8.39
5473.75,8.86
5528.49,9.24
5583.77,9.55
5639.61,9.80
5696.00,10.00
5752.96,10.18
5810.49,10.35
5868.60,10.53
5927.28,10.71
5986.56,10.89
6046.42,11.08
6106.89,11.26
6167.96,11.44
6229.64,11.58
6291.93,11.70
6354.85,11.76
6418.40,11.76
6482.58,11.71
6547.41,11.58
6612.88,11.39
6679.01,11.14
6745.80,10.84
6813.26,10.50
6881.39,10.14
6950.21,9.77
7019.71,9.42
7089.91,9.10
7160.81,8.82
7232.41,8.63
7304.74,8.49
7377.79,8.42
7451.56,8.41
7526.08,8.43
7601.34,8.45
7677.35,8.45
7754.13,8.42
7831.67,8.30
7909.98,8.11
7989.08,7.85
8068.98,7.46
8149.67,6.99
8231.16,6.43
8313.47,5.75
8396.61,4.99
8480.57,4.15
8565.38,3.22
8651.03,2.22
8737.54,1.19
8824.92,0.15
8913.17,-0.81
9002.30,-1.60
9092.32,-2.13
9183.25,-2.35
9275.08,-2.36
9367.83,-2.31
9461.51,-2.27
9556.12,-2.31
9651.68,-2.41
9748.20,-2.50
9845.68,-2.52
9944.14,-2.17
10043.58,-1.55
10144.02,-0.67
10245.46,0.41
10347.91,1.46
10451.39,2.38
10555.91,3.10
10661.46,3.62
10768.08,3.92
10875.76,3.99
10984.52,3.83
11094.36,3.38
11205.31,2.72
11317.36,1.88
11430.53,0.84
11544.84,-0.29
11660.29,-1.42
11776.89,-2.42
11894.66,-3.09
12013.60,-3.47
12133.74,-3.49
12255.08,-3.17
12377.63,-2.71
12501.41,-2.22
12626.42,-1.86
12752.68,-1.69
12880.21,-1.76
13009.01,-2.10
13139.10,-2.66
13270.49,-3.41
13403.20,-4.25
13537.23,-5.08
13672.60,-5.74
13809.33,-6.25
13947.42,-6.63
14086.90,-6.93
14227.77,-7.29
14370.04,-7.73
14513.74,-8.26
14658.88,-8.85
14805.47,-9.40
14953.52,-9.87
15103.06,-10.19
15254.09,-10.39
15406.63,-10.53
15560.70,-10.61
15716.30,-10.65
15873.47,-10.60
16032.20,-10.42
16192.52,-10.04
16354.45,-9.50
16517.99,-8.97
16683.17,-8.51
16850.01,-8.34
17018.51,-8.38
17188.69,-8.67
17360.58,-9.37
17534.18,-10.31
17709.53,-11.47
17886.62,-12.77
18065.49,-14.04
18246.14,-14.94
18428.60,-15.36
18612.89,-15.32
18799.02,-15.13
18987.01,-14.99
19176.88,-14.98
19368.65,-15.16
19562.33,-15.51
19757.96,-15.97
19955.54,-16.54
