frequency,raw,smoothed,error,error_smoothed,equalization,parametric_eq,fixed_band_eq,equalized_raw,equalized_smoothed,target
20.00,9.90,9.90,3.26,3.26,-3.27,-3.20,-1.43,6.63,6.62,6.64
20.20,9.89,9.89,3.25,3.26,-3.26,-3.20,-1.47,6.63,6.64,6.64
20.40,9.88,9.89,3.24,3.25,-3.24,-3.20,-1.52,6.64,6.64,6.64
20.61,9.88,9.87,3.24,3.24,-3.23,-3.20,-1.56,6.65,6.65,6.64
20.81,9.86,9.86,3.23,3.22,-3.21,-3.20,-1.61,6.65,6.65,6.64
21.02,9.84,9.84,3.21,3.21,-3.20,-3.20,-1.65,6.64,6.64,6.63
21.23,9.82,9.82,3.19,3.19,-3.19,-3.20,-1.70,6.63,6.63,6.63
21.44,9.81,9.81,3.18,3.17,-3.18,-3.20,-1.75,6.63,6.63,6.63
21.66,9.79,9.79,3.16,3.16,-3.16,-3.20,-1.80,6.63,6.63,6.63
21.87,9.78,9.78,3.15,3.15,-3.15,-3.20,-1.86,6.63,6.63,6.63
22.09,9.77,9.77,3.14,3.14,-3.14,-3.20,-1.91,6.63,6.63,6.63
22.31,9.76,9.76,3.13,3.13,-3.13,-3.20,-1.97,6.63,6.63,6.63
22.54,9.75,9.75,3.12,3.12,-3.12,-3.20,-2.02,6.63,6.63,6.63
22.76,9.75,9.75,3.12,3.12,-3.13,-3.20,-2.08,6.63,6.62,6.63
22.99,9.75,9.75,3.12,3.12,-3.13,-3.20,-2.14,6.62,6.62,6.63
23.22,9.76,9.76,3.13,3.14,-3.15,-3.20,-2.21,6.61,6.61,6.63
23.45,9.78,9.78,3.16,3.16,-3.17,-3.20,-2.27,6.61,6.61,6.62
23.69,9.81,9.81,3.19,3.19,-3.19,-3.20,-2.33,6.62,6.62,6.62
23.92,9.84,9.84,3.22,3.22,-3.22,-3.20,-2.40,6.62,6.62,6.62
24.16,9.87,9.87,3.25,3.25,-3.25,-3.20,-2.47,6.63,6.63,6.62
24.40,9.90,9.90,3.28,3.28,-3.26,-3.20,-2.53,6.64,6.64,6.62
24.65,9.92,9.92,3.30,3.30,-3.28,-3.20,-2.60,6.64,6.64,6.62
24.89,9.92,9.92,3.30,3.30,-3.28,-3.20,-2.67,6.64,6.64,6.62
25.14,9.91,9.91,3.29,3.29,-3.28,-3.20,-2.74,6.63,6.63,6.62
25.39,9.89,9.89,3.28,3.28,-3.27,-3.20,-2.81,6.62,6.62,6.61
25.65,9.87,9.87,3.26,3.26,-3.27,-3.20,-2.88,6.60,6.60,6.61
25.91,9.85,9.85,3.24,3.24,-3.26,-3.20,-2.95,6.59,6.59,6.61
26.16,9.84,9.84,3.23,3.23,-3.25,-3.20,-3.02,6.59,6.59,6.61
26.43,9.84,9.85,3.23,3.24,-3.25,-3.20,-3.09,6.59,6.59,6.61
26.69,9.86,9.86,3.25,3.25,-3.25,-3.20,-3.16,6.61,6.60,6.61
26.96,9.87,9.87,3.27,3.27,-3.26,-3.20,-3.23,6.61,6.61,6.61
27.23,9.88,9.88,3.28,3.28,-3.26,-3.20,-3.29,6.62,6.62,6.60
27.50,9.88,9.88,3.28,3.28,-3.26,-3.20,-3.36,6.62,6.62,6.60
27.77,9.87,9.87,3.27,3.27,-3.25,-3.20,-3.42,6.62,6.61,6.60
28.05,9.85,9.85,3.25,3.25,-3.25,-3.19,-3.48,6.60,6.60,6.60
28.33,9.83,9.83,3.23,3.23,-3.24,-3.19,-3.54,6.59,6.59,6.60
28.62,9.81,9.81,3.22,3.22,-3.23,-3.19,-3.59,6.58,6.58,6.59
28.90,9.79,9.80,3.20,3.20,-3.22,-3.19,-3.64,6.57,6.57,6.59
29.19,9.79,9.79,3.20,3.20,-3.22,-3.19,-3.69,6.57,6.57,6.59
29.48,9.79,9.79,3.20,3.21,-3.22,-3.19,-3.73,6.57,6.57,6.59
29.78,9.80,9.80,3.22,3.22,-3.22,-3.19,-3.77,6.58,6.58,6.58
30.08,9.80,9.80,3.22,3.22,-3.21,-3.18,-3.80,6.59,6.59,6.58
30.38,9.80,9.80,3.22,3.22,-3.20,-3.18,-3.83,6.60,6.60,6.58
30.68,9.78,9.78,3.20,3.21,-3.18,-3.18,-3.85,6.60,6.60,6.58
30.99,9.75,9.75,3.18,3.18,-3.15,-3.18,-3.87,6.60,6.60,6.57
31.30,9.70,9.70,3.13,3.13,-3.11,-3.18,-3.88,6.59,6.59,6.57
31.61,9.64,9.64,3.07,3.07,-3.06,-3.17,-3.88,6.58,6.58,6.57
31.93,9.58,9.58,3.02,3.02,-3.02,-3.17,-3.88,6.56,6.56,6.56
32.24,9.52,9.52,2.96,2.96,-2.99,-3.17,-3.88,6.54,6.54,6.56
32.57,9.48,9.48,2.92,2.93,-2.96,-3.16,-3.87,6.52,6.52,6.56
32.89,9.46,9.46,2.91,2.91,-2.95,-3.16,-3.85,6.51,6.51,6.55
33.22,9.47,9.47,2.92,2.93,-2.96,-3.16,-3.83,6.52,6.52,6.55
33.55,9.50,9.50,2.96,2.96,-2.97,-3.15,-3.81,6.53,6.53,6.55
33.89,9.55,9.54,3.01,3.00,-2.99,-3.15,-3.78,6.56,6.55,6.54
34.23,9.58,9.58,3.04,3.04,-3.01,-3.15,-3.75,6.57,6.56,6.54
34.57,9.60,9.60,3.07,3.07,-3.03,-3.14,-3.72,6.57,6.57,6.53
34.92,9.60,9.60,3.07,3.07,-3.05,-3.14,-3.68,6.55,6.55,6.53
35.27,9.59,9.59,3.07,3.06,-3.05,-3.13,-3.64,6.54,6.54,6.52
35.62,9.56,9.56,3.04,3.04,-3.04,-3.13,-3.59,6.52,6.52,6.52
35.97,9.53,9.54,3.02,3.02,-3.03,-3.12,-3.55,6.50,6.51,6.51
36.33,9.51,9.51,3.00,3.00,-3.01,-3.12,-3.50,6.50,6.50,6.51
36.70,9.49,9.49,2.99,2.99,-3.00,-3.11,-3.46,6.49,6.49,6.50
37.06,9.47,9.47,2.97,2.98,-2.99,-3.10,-3.41,6.49,6.49,6.50
37.43,9.46,9.46,2.97,2.97,-2.98,-3.10,-3.36,6.48,6.48,6.49
37.81,9.45,9.45,2.97,2.97,-2.97,-3.09,-3.31,6.48,6.48,6.48
38.19,9.45,9.45,2.97,2.97,-2.97,-3.08,-3.27,6.48,6.48,6.48
38.57,9.45,9.45,2.98,2.98,-2.97,-3.08,-3.22,6.48,6.48,6.47
38.95,9.44,9.44,2.98,2.98,-2.97,-3.07,-3.17,6.47,6.47,6.47
39.34,9.43,9.43,2.97,2.97,-2.97,-3.06,-3.13,6.46,6.46,6.46
39.74,9.41,9.41,2.96,2.96,-2.96,-3.05,-3.08,6.45,6.45,6.45
40.14,9.40,9.40,2.96,2.96,-2.96,-3.04,-3.04,6.45,6.44,6.44
40.54,9.38,9.38,2.95,2.94,-2.95,-3.03,-3.00,6.44,6.43,6.44
40.94,9.36,9.36,2.93,2.93,-2.93,-3.02,-2.96,6.43,6.43,6.43
41.35,9.34,9.34,2.92,2.92,-2.92,-3.01,-2.92,6.42,6.42,6.42
41.76,9.32,9.32,2.91,2.91,-2.91,-3.00,-2.88,6.41,6.41,6.41
42.18,9.30,9.30,2.90,2.90,-2.90,-2.99,-2.85,6.40,6.40,6.40
42.60,9.27,9.27,2.88,2.88,-2.88,-2.98,-2.81,6.39,6.39,6.39
43.03,9.25,9.25,2.87,2.87,-2.87,-2.96,-2.78,6.38,6.38,6.38
43.46,9.23,9.23,2.86,2.86,-2.86,-2.95,-2.75,6.37,6.37,6.37
43.90,9.21,9.21,2.85,2.85,-2.84,-2.94,-2.73,6.37,6.37,6.36
44.33,9.19,9.19,2.84,2.84,-2.83,-2.92,-2.70,6.36,6.36,6.35
44.78,9.16,9.16,2.82,2.82,-2.82,-2.91,-2.68,6.34,6.34,6.34
45.23,9.13,9.13,2.80,2.81,-2.81,-2.89,-2.66,6.32,6.32,6.33
45.68,9.11,9.11,2.80,2.79,-2.81,-2.88,-2.64,6.31,6.30,6.32
46.13,9.09,9.09,2.79,2.79,-2.80,-2.86,-2.62,6.29,6.29,6.30
46.60,9.08,9.08,2.79,2.79,-2.80,-2.85,-2.61,6.28,6.28,6.29
47.06,9.07,9.07,2.79,2.80,-2.80,-2.83,-2.59,6.27,6.27,6.28
47.53,9.07,9.07,2.81,2.81,-2.80,-2.81,-2.58,6.27,6.27,6.26
48.01,9.06,9.06,2.81,2.81,-2.79,-2.79,-2.57,6.27,6.27,6.25
48.49,9.04,9.04,2.81,2.80,-2.78,-2.77,-2.57,6.26,6.26,6.23
48.97,9.00,9.00,2.78,2.78,-2.76,-2.76,-2.56,6.24,6.24,6.22
49.46,8.95,8.95,2.75,2.75,-2.74,-2.74,-2.56,6.21,6.21,6.20
49.96,8.90,8.90,2.71,2.71,-2.72,-2.72,-2.56,6.18,6.18,6.19
50.46,8.85,8.85,2.68,2.68,-2.69,-2.70,-2.56,6.16,6.16,6.17
50.96,8.80,8.80,2.65,2.65,-2.67,-2.68,-2.56,6.13,6.13,6.15
51.47,8.77,8.77,2.64,2.64,-2.65,-2.66,-2.56,6.12,6.12,6.13
51.99,8.74,8.75,2.63,2.63,-2.64,-2.63,-2.56,6.10,6.11,6.12
52.51,8.73,8.73,2.63,2.63,-2.63,-2.61,-2.57,6.10,6.10,6.10
53.03,8.71,8.71,2.63,2.63,-2.63,-2.59,-2.57,6.08,6.08,6.08
53.56,8.69,8.69,2.64,2.64,-2.63,-2.57,-2.58,6.06,6.07,6.06
54.10,8.67,8.67,2.64,2.63,-2.62,-2.55,-2.58,6.05,6.04,6.03
54.64,8.64,8.64,2.63,2.63,-2.62,-2.53,-2.59,6.02,6.02,6.01
55.18,8.60,8.61,2.61,2.62,-2.62,-2.51,-2.59,5.98,5.99,5.99
55.74,8.57,8.57,2.60,2.61,-2.61,-2.49,-2.60,5.96,5.96,5.97
56.29,8.54,8.54,2.60,2.60,-2.60,-2.47,-2.61,5.94,5.94,5.94
56.86,8.51,8.51,2.59,2.59,-2.59,-2.46,-2.61,5.92,5.92,5.92
57.42,8.47,8.47,2.58,2.58,-2.57,-2.44,-2.62,5.90,5.90,5.89
58.00,8.43,8.43,2.57,2.57,-2.56,-2.42,-2.62,5.87,5.87,5.87
58.58,8.39,8.39,2.55,2.55,-2.56,-2.41,-2.62,5.83,5.83,5.84
59.16,8.35,8.35,2.54,2.54,-2.55,-2.39,-2.62,5.80,5.80,5.81
59.76,8.31,8.31,2.53,2.53,-2.55,-2.38,-2.62,5.76,5.77,5.78
60.35,8.28,8.28,2.53,2.53,-2.54,-2.37,-2.62,5.74,5.74,5.75
60.96,8.26,8.26,2.54,2.54,-2.54,-2.36,-2.62,5.72,5.72,5.72
61.57,8.23,8.23,2.54,2.54,-2.53,-2.35,-2.62,5.70,5.70,5.69
62.18,8.19,8.19,2.53,2.53,-2.51,-2.34,-2.61,5.68,5.67,5.66
62.80,8.13,8.13,2.51,2.51,-2.49,-2.33,-2.61,5.64,5.64,5.62
63.43,8.07,8.07,2.48,2.48,-2.47,-2.33,-2.60,5.60,5.60,5.59
64.07,8.00,8.00,2.45,2.45,-2.44,-2.32,-2.59,5.56,5.56,5.55
64.71,7.93,7.93,2.41,2.41,-2.41,-2.32,-2.58,5.52,5.52,5.52
65.35,7.85,7.85,2.37,2.37,-2.38,-2.32,-2.56,5.47,5.47,5.48
66.01,7.78,7.78,2.34,2.34,-2.37,-2.32,-2.55,5.41,5.42,5.44
66.67,7.73,7.73,2.33,2.33,-2.36,-2.32,-2.53,5.38,5.38,5.40
67.33,7.69,7.70,2.33,2.33,-2.35,-2.32,-2.51,5.34,5.35,5.36
68.01,7.68,7.68,2.36,2.35,-2.36,-2.33,-2.50,5.32,5.32,5.32
68.69,7.66,7.66,2.38,2.38,-2.36,-2.33,-2.48,5.30,5.29,5.28
69.37,7.63,7.63,2.39,2.39,-2.37,-2.34,-2.46,5.26,5.26,5.24
70.07,7.59,7.59,2.40,2.40,-2.38,-2.35,-2.44,5.21,5.21,5.19
70.77,7.54,7.54,2.39,2.39,-2.38,-2.35,-2.42,5.16,5.16,5.15
71.48,7.49,7.49,2.39,2.39,-2.38,-2.36,-2.39,5.11,5.11,5.10
72.19,7.43,7.43,2.38,2.37,-2.37,-2.37,-2.37,5.06,5.06,5.06
72.91,7.36,7.36,2.35,2.36,-2.36,-2.38,-2.35,5.00,5.00,5.01
73.64,7.30,7.30,2.34,2.34,-2.35,-2.39,-2.33,4.95,4.95,4.96
74.38,7.24,7.24,2.33,2.33,-2.33,-2.40,-2.31,4.91,4.90,4.91
75.12,7.18,7.18,2.32,2.32,-2.33,-2.41,-2.29,4.85,4.85,4.86
75.87,7.12,7.12,2.32,2.32,-2.32,-2.42,-2.27,4.80,4.80,4.80
76.63,7.07,7.07,2.32,2.32,-2.32,-2.43,-2.25,4.75,4.74,4.75
77.40,7.02,7.02,2.32,2.32,-2.33,-2.43,-2.23,4.69,4.69,4.70
78.17,6.97,6.97,2.33,2.33,-2.34,-2.44,-2.22,4.63,4.63,4.64
78.95,6.93,6.93,2.35,2.35,-2.35,-2.45,-2.20,4.58,4.58,4.58
79.74,6.90,6.90,2.37,2.37,-2.37,-2.46,-2.19,4.53,4.53,4.53
80.54,6.86,6.86,2.39,2.39,-2.38,-2.47,-2.17,4.48,4.48,4.47
81.35,6.81,6.81,2.40,2.40,-2.39,-2.47,-2.16,4.43,4.42,4.41
82.16,6.75,6.75,2.40,2.40,-2.39,-2.48,-2.15,4.36,4.36,4.35
82.98,6.68,6.68,2.39,2.40,-2.39,-2.48,-2.14,4.29,4.29,4.29
83.81,6.62,6.61,2.39,2.39,-2.39,-2.49,-2.13,4.23,4.23,4.23
84.65,6.54,6.54,2.38,2.38,-2.38,-2.49,-2.13,4.16,4.16,4.16
85.50,6.47,6.47,2.37,2.37,-2.38,-2.49,-2.12,4.09,4.09,4.10
86.35,6.40,6.40,2.36,2.36,-2.37,-2.50,-2.12,4.03,4.03,4.04
87.22,6.33,6.33,2.36,2.36,-2.37,-2.50,-2.12,3.96,3.96,3.97
88.09,6.27,6.27,2.37,2.37,-2.37,-2.50,-2.12,3.90,3.90,3.91
88.97,6.21,6.21,2.37,2.37,-2.37,-2.50,-2.12,3.84,3.84,3.84
89.86,6.15,6.15,2.38,2.38,-2.37,-2.50,-2.12,3.78,3.78,3.77
90.76,6.08,6.08,2.38,2.38,-2.37,-2.49,-2.13,3.72,3.72,3.70
91.66,6.01,6.01,2.38,2.38,-2.37,-2.49,-2.13,3.64,3.64,3.63
92.58,5.94,5.94,2.38,2.37,-2.37,-2.49,-2.14,3.57,3.57,3.57
93.51,5.87,5.87,2.38,2.38,-2.39,-2.48,-2.15,3.48,3.49,3.50
94.44,5.81,5.81,2.39,2.39,-2.41,-2.48,-2.16,3.40,3.40,3.43
95.39,5.76,5.76,2.41,2.41,-2.44,-2.47,-2.17,3.32,3.32,3.35
96.34,5.72,5.73,2.44,2.44,-2.47,-2.46,-2.19,3.25,3.25,3.28
97.30,5.70,5.70,2.49,2.49,-2.51,-2.46,-2.20,3.19,3.20,3.21
98.28,5.69,5.69,2.55,2.55,-2.54,-2.45,-2.22,3.16,3.15,3.14
99.26,5.66,5.66,2.59,2.59,-2.55,-2.44,-2.23,3.11,3.11,3.07
100.25,5.61,5.60,2.62,2.61,-2.56,-2.43,-2.25,3.05,3.04,3.00
101.25,5.52,5.51,2.60,2.59,-2.55,-2.42,-2.27,2.97,2.96,2.92
102.27,5.39,5.39,2.54,2.55,-2.53,-2.41,-2.29,2.86,2.87,2.85
103.29,5.26,5.26,2.48,2.48,-2.49,-2.40,-2.31,2.77,2.77,2.78
104.32,5.12,5.13,2.42,2.42,-2.45,-2.39,-2.33,2.67,2.67,2.70
105.37,5.00,5.01,2.37,2.38,-2.41,-2.37,-2.35,2.60,2.60,2.63
106.42,4.90,4.90,2.34,2.34,-2.36,-2.36,-2.37,2.54,2.54,2.56
107.48,4.80,4.80,2.32,2.32,-2.32,-2.35,-2.40,2.48,2.48,2.48
108.56,4.71,4.71,2.30,2.30,-2.29,-2.33,-2.42,2.42,2.42,2.41
109.64,4.62,4.62,2.28,2.28,-2.26,-2.32,-2.44,2.36,2.36,2.34
110.74,4.53,4.53,2.26,2.26,-2.24,-2.31,-2.45,2.29,2.28,2.27
111.85,4.43,4.43,2.24,2.24,-2.24,-2.29,-2.47,2.19,2.19,2.19
112.97,4.34,4.34,2.22,2.22,-2.24,-2.28,-2.49,2.10,2.10,2.12
114.10,4.26,4.27,2.21,2.22,-2.25,-2.26,-2.51,2.01,2.02,2.05
115.24,4.22,4.22,2.24,2.24,-2.27,-2.24,-2.52,1.95,1.95,1.98
116.39,4.19,4.19,2.28,2.28,-2.29,-2.23,-2.53,1.90,1.89,1.91
117.55,4.17,4.17,2.33,2.33,-2.32,-2.21,-2.54,1.85,1.84,1.84
118.73,4.14,4.14,2.37,2.37,-2.36,-2.20,-2.55,1.79,1.79,1.77
119.92,4.11,4.11,2.41,2.41,-2.38,-2.18,-2.56,1.73,1.72,1.70
121.12,4.06,4.06,2.43,2.43,-2.41,-2.16,-2.56,1.65,1.65,1.63
122.33,4.00,4.00,2.44,2.44,-2.42,-2.15,-2.56,1.58,1.57,1.56
123.55,3.92,3.92,2.43,2.43,-2.43,-2.13,-2.56,1.49,1.49,1.49
124.79,3.84,3.85,2.41,2.42,-2.43,-2.11,-2.55,1.41,1.42,1.43
126.03,3.77,3.77,2.41,2.41,-2.42,-2.10,-2.55,1.35,1.35,1.36
127.29,3.70,3.70,2.41,2.40,-2.41,-2.08,-2.53,1.29,1.29,1.30
128.57,3.62,3.63,2.39,2.40,-2.39,-2.07,-2.52,1.23,1.23,1.23
129.85,3.55,3.55,2.38,2.38,-2.37,-2.05,-2.50,1.18,1.18,1.17
131.15,3.47,3.46,2.37,2.36,-2.35,-2.03,-2.49,1.12,1.12,1.10
132.46,3.37,3.37,2.33,2.33,-2.32,-2.02,-2.47,1.05,1.05,1.04
133.79,3.27,3.27,2.29,2.29,-2.29,-2.00,-2.44,0.98,0.98,0.98
135.12,3.17,3.17,2.25,2.25,-2.26,-1.98,-2.42,0.91,0.91,0.92
136.48,3.08,3.08,2.22,2.22,-2.24,-1.97,-2.39,0.85,0.85,0.86
137.84,3.00,3.00,2.20,2.20,-2.21,-1.95,-2.36,0.79,0.79,0.80
139.22,2.92,2.92,2.18,2.18,-2.18,-1.93,-2.33,0.74,0.74,0.74
140.61,2.85,2.85,2.16,2.16,-2.16,-1.92,-2.30,0.69,0.69,0.69
142.02,2.77,2.77,2.14,2.14,-2.13,-1.90,-2.27,0.64,0.63,0.63
143.44,2.69,2.69,2.11,2.11,-2.11,-1.89,-2.23,0.58,0.58,0.58
144.87,2.61,2.61,2.09,2.09,-2.09,-1.87,-2.20,0.52,0.52,0.52
146.32,2.54,2.54,2.07,2.07,-2.07,-1.86,-2.16,0.48,0.47,0.47
147.78,2.46,2.46,2.04,2.04,-2.04,-1.84,-2.12,0.42,0.42,0.42
149.26,2.38,2.38,2.01,2.01,-2.01,-1.83,-2.09,0.37,0.38,0.37
150.75,2.30,2.30,1.98,1.98,-1.97,-1.81,-2.05,0.33,0.32,0.32
152.26,2.21,2.21,1.94,1.94,-1.94,-1.80,-2.01,0.27,0.27,0.27
153.78,2.12,2.12,1.90,1.90,-1.90,-1.78,-1.98,0.22,0.22,0.22
155.32,2.04,2.04,1.86,1.86,-1.87,-1.77,-1.94,0.17,0.17,0.18
156.88,1.96,1.96,1.83,1.83,-1.83,-1.76,-1.91,0.13,0.13,0.13
158.44,1.88,1.88,1.79,1.79,-1.80,-1.74,-1.87,0.08,0.09,0.09
160.03,1.80,1.80,1.76,1.76,-1.76,-1.73,-1.84,0.04,0.04,0.04
161.63,1.72,1.72,1.73,1.72,-1.72,-1.71,-1.81,0.00,-0.00,-0.01
163.24,1.63,1.64,1.68,1.68,-1.68,-1.70,-1.77,-0.05,-0.04,-0.05
164.88,1.55,1.55,1.64,1.64,-1.64,-1.69,-1.74,-0.09,-0.09,-0.09
166.53,1.47,1.47,1.60,1.60,-1.59,-1.68,-1.71,-0.12,-0.13,-0.13
168.19,1.38,1.38,1.55,1.55,-1.55,-1.66,-1.68,-0.17,-0.17,-0.17
169.87,1.29,1.29,1.50,1.50,-1.50,-1.65,-1.66,-0.21,-0.21,-0.21
171.57,1.21,1.21,1.45,1.45,-1.45,-1.64,-1.63,-0.24,-0.24,-0.24
173.29,1.13,1.13,1.41,1.41,-1.41,-1.63,-1.60,-0.28,-0.28,-0.28
175.02,1.05,1.05,1.36,1.36,-1.36,-1.61,-1.58,-0.31,-0.31,-0.31
176.77,0.97,0.97,1.32,1.31,-1.31,-1.60,-1.55,-0.34,-0.34,-0.35
178.54,0.89,0.89,1.27,1.27,-1.27,-1.59,-1.53,-0.37,-0.38,-0.38
180.32,0.81,0.81,1.22,1.22,-1.22,-1.58,-1.51,-0.41,-0.41,-0.41
182.13,0.74,0.74,1.18,1.18,-1.18,-1.57,-1.49,-0.44,-0.44,-0.44
183.95,0.67,0.67,1.14,1.14,-1.15,-1.55,-1.47,-0.48,-0.47,-0.47
185.79,0.62,0.62,1.12,1.12,-1.12,-1.54,-1.46,-0.50,-0.50,-0.50
187.65,0.56,0.56,1.09,1.09,-1.09,-1.53,-1.44,-0.53,-0.53,-0.53
189.52,0.52,0.52,1.08,1.08,-1.08,-1.52,-1.42,-0.56,-0.56,-0.56
191.42,0.48,0.48,1.06,1.07,-1.07,-1.51,-1.41,-0.59,-0.59,-0.58
193.33,0.46,0.46,1.07,1.07,-1.07,-1.50,-1.40,-0.61,-0.61,-0.61
195.27,0.44,0.44,1.07,1.08,-1.08,-1.49,-1.38,-0.64,-0.64,-0.63
197.22,0.43,0.43,1.09,1.09,-1.09,-1.48,-1.37,-0.66,-0.66,-0.66
199.19,0.43,0.43,1.11,1.11,-1.11,-1.47,-1.36,-0.68,-0.68,-0.68
201.18,0.42,0.42,1.12,1.13,-1.12,-1.46,-1.35,-0.70,-0.70,-0.70
203.19,0.42,0.42,1.15,1.14,-1.14,-1.45,-1.34,-0.72,-0.72,-0.73
205.23,0.41,0.41,1.16,1.16,-1.16,-1.44,-1.34,-0.75,-0.75,-0.75
207.28,0.40,0.40,1.17,1.17,-1.17,-1.43,-1.33,-0.77,-0.77,-0.77
209.35,0.39,0.39,1.18,1.18,-1.18,-1.42,-1.32,-0.79,-0.78,-0.79
211.44,0.38,0.38,1.19,1.19,-1.18,-1.41,-1.32,-0.80,-0.80,-0.81
213.56,0.36,0.36,1.19,1.18,-1.18,-1.40,-1.31,-0.82,-0.82,-0.83
215.69,0.33,0.33,1.18,1.18,-1.18,-1.39,-1.30,-0.84,-0.84,-0.84
217.85,0.30,0.30,1.16,1.17,-1.17,-1.38,-1.30,-0.87,-0.86,-0.86
220.03,0.28,0.28,1.16,1.16,-1.16,-1.37,-1.30,-0.88,-0.88,-0.88
222.23,0.25,0.25,1.15,1.15,-1.15,-1.36,-1.29,-0.90,-0.90,-0.90
224.45,0.22,0.22,1.13,1.14,-1.14,-1.35,-1.29,-0.92,-0.91,-0.91
226.70,0.20,0.20,1.13,1.13,-1.13,-1.34,-1.28,-0.93,-0.93,-0.93
228.96,0.17,0.17,1.11,1.11,-1.12,-1.33,-1.28,-0.95,-0.94,-0.94
231.25,0.15,0.15,1.11,1.11,-1.11,-1.32,-1.27,-0.96,-0.96,-0.96
233.57,0.12,0.12,1.09,1.10,-1.10,-1.31,-1.27,-0.98,-0.97,-0.97
235.90,0.10,0.10,1.10,1.09,-1.09,-1.30,-1.26,-0.99,-0.99,-0.99
238.26,0.07,0.07,1.08,1.08,-1.08,-1.29,-1.25,-1.01,-1.01,-1.01
240.64,0.05,0.05,1.07,1.07,-1.07,-1.28,-1.25,-1.02,-1.02,-1.02
243.05,0.03,0.03,1.06,1.06,-1.06,-1.27,-1.24,-1.03,-1.03,-1.03
245.48,0.01,0.01,1.05,1.05,-1.05,-1.26,-1.23,-1.04,-1.04,-1.04
247.93,-0.01,-0.01,1.05,1.05,-1.05,-1.25,-1.23,-1.06,-1.06,-1.06
250.41,-0.03,-0.03,1.04,1.04,-1.05,-1.24,-1.22,-1.07,-1.07,-1.07
252.92,-0.04,-0.04,1.04,1.04,-1.04,-1.24,-1.21,-1.08,-1.08,-1.08
255.45,-0.05,-0.05,1.04,1.04,-1.04,-1.23,-1.20,-1.09,-1.09,-1.09
258.00,-0.05,-0.05,1.05,1.04,-1.04,-1.22,-1.19,-1.09,-1.09,-1.10
260.58,-0.06,-0.06,1.05,1.05,-1.04,-1.21,-1.18,-1.10,-1.10,-1.11
263.19,-0.07,-0.07,1.05,1.05,-1.04,-1.20,-1.16,-1.11,-1.11,-1.12
265.82,-0.08,-0.08,1.05,1.05,-1.04,-1.19,-1.15,-1.12,-1.12,-1.12
268.48,-0.09,-0.09,1.04,1.04,-1.04,-1.18,-1.14,-1.13,-1.13,-1.13
271.16,-0.10,-0.10,1.04,1.04,-1.04,-1.17,-1.13,-1.14,-1.14,-1.14
273.87,-0.11,-0.11,1.04,1.04,-1.04,-1.17,-1.11,-1.15,-1.15,-1.15
276.61,-0.11,-0.11,1.05,1.04,-1.05,-1.16,-1.10,-1.15,-1.16,-1.16
279.38,-0.12,-0.12,1.04,1.05,-1.05,-1.15,-1.08,-1.17,-1.16,-1.16
282.17,-0.12,-0.12,1.05,1.05,-1.05,-1.14,-1.07,-1.17,-1.17,-1.17
284.99,-0.12,-0.12,1.05,1.05,-1.05,-1.13,-1.05,-1.17,-1.17,-1.17
287.84,-0.12,-0.12,1.05,1.05,-1.05,-1.12,-1.04,-1.17,-1.17,-1.16
290.72,-0.12,-0.12,1.05,1.05,-1.05,-1.12,-1.03,-1.17,-1.17,-1.17
293.63,-0.12,-0.12,1.06,1.05,-1.05,-1.11,-1.01,-1.17,-1.17,-1.18
296.57,-0.12,-0.12,1.05,1.05,-1.05,-1.10,-1.00,-1.17,-1.17,-1.17
299.53,-0.12,-0.12,1.05,1.05,-1.05,-1.09,-0.98,-1.17,-1.17,-1.17
302.53,-0.12,-0.12,1.06,1.05,-1.06,-1.09,-0.97,-1.17,-1.17,-1.17
305.55,-0.12,-0.12,1.05,1.06,-1.06,-1.08,-0.95,-1.18,-1.17,-1.17
308.61,-0.11,-0.11,1.07,1.06,-1.06,-1.07,-0.94,-1.17,-1.17,-1.17
311.69,-0.11,-0.11,1.06,1.06,-1.06,-1.07,-0.93,-1.17,-1.17,-1.17
314.81,-0.11,-0.11,1.07,1.07,-1.07,-1.06,-0.91,-1.17,-1.17,-1.17
317.96,-0.10,-0.10,1.07,1.07,-1.07,-1.05,-0.90,-1.17,-1.17,-1.17
321.14,-0.10,-0.10,1.07,1.07,-1.07,-1.05,-0.89,-1.17,-1.17,-1.17
324.35,-0.09,-0.09,1.08,1.08,-1.08,-1.04,-0.88,-1.17,-1.17,-1.17
327.59,-0.09,-0.09,1.07,1.08,-1.08,-1.03,-0.87,-1.17,-1.17,-1.16
330.87,-0.08,-0.08,1.09,1.08,-1.09,-1.03,-0.86,-1.16,-1.16,-1.17
334.18,-0.07,-0.07,1.09,1.09,-1.09,-1.02,-0.85,-1.16,-1.16,-1.16
337.52,-0.07,-0.07,1.09,1.09,-1.09,-1.02,-0.84,-1.16,-1.16,-1.16
340.90,-0.06,-0.06,1.10,1.09,-1.09,-1.01,-0.83,-1.15,-1.15,-1.16
344.30,-0.06,-0.06,1.09,1.10,-1.09,-1.01,-0.82,-1.15,-1.15,-1.15
347.75,-0.05,-0.05,1.09,1.09,-1.09,-1.00,-0.82,-1.14,-1.15,-1.14
351.23,-0.05,-0.05,1.10,1.09,-1.09,-1.00,-0.81,-1.14,-1.14,-1.15
354.74,-0.05,-0.05,1.08,1.09,-1.09,-0.99,-0.80,-1.14,-1.14,-1.13
358.28,-0.05,-0.05,1.08,1.08,-1.09,-0.99,-0.80,-1.14,-1.13,-1.13
361.87,-0.04,-0.04,1.09,1.08,-1.08,-0.99,-0.79,-1.12,-1.12,-1.13
365.49,-0.04,-0.04,1.08,1.08,-1.08,-0.98,-0.79,-1.12,-1.12,-1.12
369.14,-0.04,-0.04,1.08,1.07,-1.07,-0.98,-0.79,-1.11,-1.11,-1.12
372.83,-0.05,-0.05,1.05,1.06,-1.07,-0.98,-0.78,-1.12,-1.11,-1.10
376.56,-0.05,-0.05,1.06,1.06,-1.06,-0.98,-0.78,-1.11,-1.11,-1.11
380.33,-0.05,-0.05,1.05,1.05,-1.05,-0.98,-0.78,-1.10,-1.10,-1.10
384.13,-0.05,-0.05,1.05,1.05,-1.05,-0.97,-0.78,-1.10,-1.10,-1.10
387.97,-0.05,-0.05,1.04,1.04,-1.04,-0.97,-0.77,-1.09,-1.09,-1.09
391.85,-0.05,-0.05,1.03,1.03,-1.03,-0.97,-0.77,-1.08,-1.08,-1.08
395.77,-0.05,-0.05,1.03,1.02,-1.03,-0.97,-0.77,-1.08,-1.08,-1.08
399.73,-0.05,-0.05,1.02,1.02,-1.02,-0.97,-0.77,-1.07,-1.07,-1.07
403.72,-0.05,-0.05,1.01,1.02,-1.01,-0.97,-0.77,-1.06,-1.06,-1.06
407.76,-0.05,-0.05,1.01,1.01,-1.01,-0.96,-0.78,-1.06,-1.06,-1.06
411.84,-0.05,-0.05,1.01,1.00,-1.00,-0.96,-0.78,-1.05,-1.05,-1.05
415.96,-0.06,-0.06,0.99,0.99,-0.99,-0.96,-0.78,-1.05,-1.05,-1.05
420.12,-0.06,-0.06,0.99,0.99,-0.99,-0.96,-0.78,-1.05,-1.05,-1.05
424.32,-0.06,-0.06,0.98,0.98,-0.98,-0.95,-0.78,-1.04,-1.04,-1.04
428.56,-0.06,-0.06,0.97,0.97,-0.97,-0.95,-0.78,-1.03,-1.03,-1.03
432.85,-0.06,-0.06,0.96,0.96,-0.96,-0.94,-0.78,-1.02,-1.03,-1.02
437.18,-0.07,-0.07,0.95,0.96,-0.95,-0.94,-0.78,-1.02,-1.02,-1.02
441.55,-0.07,-0.07,0.95,0.95,-0.94,-0.93,-0.79,-1.01,-1.01,-1.02
445.96,-0.07,-0.07,0.94,0.93,-0.93,-0.92,-0.79,-1.00,-1.00,-1.01
450.42,-0.08,-0.08,0.91,0.92,-0.92,-0.91,-0.79,-1.00,-0.99,-0.99
454.93,-0.08,-0.08,0.90,0.90,-0.91,-0.90,-0.79,-0.99,-0.99,-0.98
459.48,-0.08,-0.08,0.89,0.89,-0.89,-0.89,-0.79,-0.97,-0.98,-0.97
464.07,-0.09,-0.09,0.88,0.88,-0.88,-0.87,-0.79,-0.97,-0.97,-0.97
468.71,-0.09,-0.09,0.87,0.87,-0.87,-0.86,-0.78,-0.96,-0.96,-0.96
473.40,-0.10,-0.10,0.85,0.86,-0.86,-0.84,-0.78,-0.96,-0.95,-0.95
478.13,-0.10,-0.10,0.85,0.84,-0.84,-0.83,-0.78,-0.94,-0.94,-0.94
482.91,-0.11,-0.11,0.83,0.83,-0.83,-0.81,-0.77,-0.94,-0.94,-0.94
487.74,-0.11,-0.11,0.82,0.81,-0.81,-0.79,-0.77,-0.92,-0.93,-0.93
492.62,-0.12,-0.12,0.80,0.80,-0.80,-0.78,-0.76,-0.92,-0.92,-0.92
497.55,-0.13,-0.13,0.78,0.78,-0.78,-0.76,-0.76,-0.91,-0.91,-0.91
502.52,-0.13,-0.13,0.77,0.76,-0.76,-0.74,-0.75,-0.89,-0.89,-0.90
