frequency,raw,smoothed,error,error_smoothed,equalization,parametric_eq,fixed_band_eq,equalized_raw,equalized_smoothed,target
20.00,9.77,9.77,2.67,2.67,-2.67,-2.59,-1.08,7.11,7.11,7.11
20.20,9.77,9.77,2.67,2.67,-2.66,-2.59,-1.11,7.11,7.11,7.11
20.40,9.76,9.77,2.66,2.66,-2.66,-2.59,-1.14,7.10,7.11,7.11
20.61,9.76,9.77,2.66,2.66,-2.66,-2.58,-1.18,7.10,7.10,7.10
20.81,9.76,9.76,2.66,2.66,-2.66,-2.58,-1.21,7.10,7.10,7.10
21.02,9.76,9.76,2.66,2.66,-2.66,-2.58,-1.25,7.11,7.10,7.10
21.23,9.75,9.76,2.65,2.65,-2.66,-2.58,-1.29,7.10,7.10,7.10
21.44,9.75,9.75,2.65,2.65,-2.66,-2.57,-1.32,7.10,7.10,7.10
21.66,9.75,9.75,2.65,2.65,-2.66,-2.57,-1.36,7.10,7.10,7.10
21.87,9.75,9.75,2.65,2.65,-2.66,-2.57,-1.40,7.10,7.10,7.10
22.09,9.75,9.75,2.65,2.65,-2.66,-2.57,-1.44,7.10,7.10,7.10
22.31,9.75,9.75,2.66,2.65,-2.65,-2.56,-1.49,7.10,7.10,7.10
22.54,9.74,9.75,2.65,2.65,-2.65,-2.56,-1.53,7.09,7.10,7.10
22.76,9.74,9.74,2.65,2.65,-2.65,-2.56,-1.57,7.10,7.10,7.10
22.99,9.73,9.73,2.64,2.64,-2.64,-2.55,-1.62,7.10,7.10,7.10
23.22,9.72,9.72,2.63,2.63,-2.62,-2.55,-1.67,7.10,7.10,7.09
23.45,9.70,9.70,2.61,2.61,-2.60,-2.55,-1.71,7.10,7.10,7.09
23.69,9.67,9.68,2.58,2.58,-2.58,-2.54,-1.76,7.10,7.10,7.09
23.92,9.64,9.64,2.55,2.55,-2.55,-2.54,-1.81,7.09,7.10,7.09
24.16,9.61,9.61,2.52,2.52,-2.52,-2.54,-1.86,7.09,7.09,7.09
24.40,9.57,9.58,2.48,2.49,-2.49,-2.53,-1.91,7.08,7.09,7.09
24.65,9.54,9.54,2.46,2.46,-2.46,-2.53,-1.97,7.08,7.08,7.09
24.89,9.51,9.51,2.43,2.43,-2.44,-2.53,-2.02,7.08,7.08,7.09
25.14,9.49,9.49,2.41,2.41,-2.42,-2.52,-2.07,7.08,7.08,7.08
25.39,9.47,9.48,2.39,2.39,-2.40,-2.52,-2.12,7.07,7.08,7.08
25.65,9.47,9.47,2.39,2.39,-2.39,-2.51,-2.18,7.08,7.08,7.08
25.91,9.47,9.47,2.39,2.39,-2.39,-2.51,-2.23,7.08,7.08,7.08
26.16,9.47,9.47,2.39,2.39,-2.39,-2.51,-2.28,7.08,7.08,7.08
26.43,9.47,9.48,2.40,2.40,-2.40,-2.50,-2.34,7.08,7.08,7.08
26.69,9.48,9.48,2.41,2.41,-2.41,-2.50,-2.39,7.08,7.08,7.08
26.96,9.49,9.49,2.42,2.42,-2.42,-2.49,-2.44,7.07,7.07,7.07
27.23,9.50,9.51,2.43,2.43,-2.44,-2.49,-2.49,7.07,7.07,7.07
27.50,9.52,9.52,2.45,2.45,-2.46,-2.48,-2.54,7.07,7.06,7.07
27.77,9.53,9.54,2.47,2.47,-2.48,-2.48,-2.58,7.06,7.07,7.07
28.05,9.56,9.56,2.50,2.49,-2.49,-2.47,-2.63,7.07,7.07,7.07
28.33,9.58,9.58,2.52,2.52,-2.51,-2.47,-2.67,7.07,7.07,7.06
28.62,9.59,9.60,2.53,2.54,-2.53,-2.46,-2.71,7.07,7.07,7.06
28.90,9.61,9.61,2.55,2.55,-2.54,-2.46,-2.75,7.07,7.07,7.06
29.19,9.61,9.61,2.56,2.56,-2.55,-2.45,-2.78,7.06,7.06,7.06
29.48,9.61,9.62,2.56,2.56,-2.56,-2.44,-2.81,7.06,7.06,7.05
29.78,9.61,9.61,2.56,2.56,-2.56,-2.44,-2.84,7.05,7.05,7.05
30.08,9.60,9.61,2.55,2.56,-2.57,-2.43,-2.87,7.03,7.04,7.05
30.38,9.60,9.61,2.56,2.56,-2.58,-2.43,-2.89,7.03,7.03,7.05
30.68,9.61,9.61,2.57,2.57,-2.58,-2.42,-2.90,7.04,7.03,7.04
30.99,9.61,9.61,2.57,2.57,-2.58,-2.41,-2.92,7.04,7.04,7.04
31.30,9.61,9.62,2.58,2.58,-2.56,-2.41,-2.92,7.05,7.05,7.04
31.61,9.60,9.60,2.57,2.57,-2.54,-2.40,-2.93,7.06,7.06,7.04
31.93,9.58,9.58,2.55,2.55,-2.52,-2.39,-2.93,7.07,7.06,7.03
32.24,9.53,9.53,2.50,2.50,-2.48,-2.39,-2.93,7.05,7.05,7.03
32.57,9.47,9.47,2.45,2.44,-2.44,-2.38,-2.92,7.03,7.03,7.03
32.89,9.39,9.40,2.37,2.38,-2.40,-2.37,-2.91,6.99,7.00,7.02
33.22,9.34,9.35,2.33,2.33,-2.36,-2.36,-2.90,6.98,6.98,7.02
33.55,9.30,9.31,2.29,2.29,-2.33,-2.36,-2.88,6.98,6.98,7.01
33.89,9.29,9.29,2.28,2.28,-2.29,-2.35,-2.86,7.01,7.00,7.01
34.23,9.27,9.28,2.27,2.27,-2.25,-2.34,-2.84,7.02,7.03,7.01
34.57,9.26,9.26,2.26,2.26,-2.22,-2.33,-2.81,7.05,7.04,7.00
34.92,9.22,9.22,2.23,2.22,-2.19,-2.32,-2.79,7.03,7.03,7.00
35.27,9.17,9.17,2.18,2.18,-2.17,-2.32,-2.76,7.00,7.00,6.99
35.62,9.12,9.12,2.14,2.14,-2.16,-2.31,-2.72,6.96,6.96,6.99
35.97,9.08,9.09,2.10,2.11,-2.16,-2.30,-2.69,6.93,6.93,6.98
36.33,9.08,9.09,2.11,2.11,-2.16,-2.29,-2.66,6.92,6.93,6.98
36.70,9.11,9.12,2.14,2.14,-2.17,-2.28,-2.62,6.94,6.95,6.97
37.06,9.15,9.16,2.19,2.19,-2.18,-2.27,-2.59,6.97,6.98,6.97
37.43,9.20,9.19,2.24,2.23,-2.19,-2.26,-2.55,7.01,7.00,6.96
37.81,9.20,9.20,2.25,2.25,-2.20,-2.25,-2.52,7.00,7.00,6.95
38.19,9.19,9.19,2.25,2.24,-2.21,-2.24,-2.48,6.99,6.98,6.95
38.57,9.15,9.15,2.21,2.21,-2.21,-2.23,-2.45,6.95,6.95,6.94
38.95,9.11,9.12,2.18,2.18,-2.20,-2.22,-2.41,6.91,6.92,6.93
39.34,9.08,9.09,2.16,2.16,-2.19,-2.21,-2.38,6.90,6.90,6.93
39.74,9.06,9.07,2.14,2.15,-2.17,-2.20,-2.35,6.89,6.90,6.92
40.14,9.06,9.06,2.15,2.15,-2.16,-2.19,-2.32,6.90,6.90,6.91
40.54,9.06,9.06,2.16,2.16,-2.15,-2.18,-2.28,6.91,6.91,6.90
40.94,9.05,9.05,2.16,2.15,-2.14,-2.17,-2.25,6.91,6.91,6.90
41.35,9.03,9.04,2.15,2.15,-2.14,-2.16,-2.23,6.89,6.89,6.89
41.76,9.01,9.02,2.14,2.14,-2.14,-2.15,-2.20,6.88,6.88,6.88
42.18,9.00,9.00,2.13,2.13,-2.13,-2.14,-2.17,6.87,6.87,6.87
42.60,8.98,8.98,2.12,2.12,-2.12,-2.13,-2.15,6.86,6.86,6.86
43.03,8.96,8.96,2.11,2.11,-2.11,-2.12,-2.13,6.86,6.85,6.85
43.46,8.93,8.94,2.09,2.10,-2.09,-2.11,-2.10,6.84,6.84,6.84
43.90,8.91,8.91,2.08,2.08,-2.08,-2.10,-2.08,6.83,6.83,6.83
44.33,8.88,8.88,2.06,2.06,-2.07,-2.09,-2.07,6.82,6.82,6.82
44.78,8.85,8.86,2.05,2.05,-2.05,-2.08,-2.05,6.80,6.80,6.81
45.23,8.83,8.83,2.04,2.04,-2.04,-2.07,-2.03,6.79,6.79,6.80
45.68,8.81,8.81,2.03,2.03,-2.03,-2.06,-2.02,6.78,6.78,6.78
46.13,8.79,8.79,2.02,2.02,-2.02,-2.05,-2.01,6.77,6.77,6.77
46.60,8.77,8.77,2.02,2.02,-2.01,-2.04,-2.00,6.76,6.76,6.76
47.06,8.75,8.75,2.01,2.01,-2.00,-2.03,-1.99,6.75,6.75,6.75
47.53,8.73,8.73,2.00,2.00,-2.00,-2.02,-1.98,6.74,6.73,6.73
48.01,8.70,8.71,1.99,1.99,-1.99,-2.01,-1.98,6.72,6.72,6.72
48.49,8.68,8.68,1.98,1.98,-1.98,-2.00,-1.97,6.70,6.70,6.70
48.97,8.66,8.66,1.98,1.97,-1.97,-2.00,-1.97,6.69,6.68,6.69
49.46,8.63,8.64,1.96,1.97,-1.97,-1.99,-1.97,6.66,6.67,6.67
49.96,8.61,8.62,1.96,1.96,-1.97,-1.98,-1.97,6.65,6.65,6.66
50.46,8.60,8.60,1.97,1.96,-1.97,-1.97,-1.97,6.64,6.63,6.64
50.96,8.58,8.59,1.96,1.97,-1.97,-1.97,-1.97,6.62,6.62,6.62
51.47,8.57,8.57,1.97,1.97,-1.97,-1.96,-1.97,6.61,6.60,6.60
51.99,8.55,8.55,1.97,1.97,-1.97,-1.95,-1.98,6.59,6.59,6.58
52.51,8.53,8.54,1.97,1.97,-1.97,-1.95,-1.98,6.57,6.57,6.56
53.03,8.51,8.51,1.97,1.97,-1.96,-1.94,-1.99,6.55,6.55,6.54
53.56,8.48,8.48,1.96,1.96,-1.96,-1.94,-1.99,6.53,6.53,6.52
54.10,8.45,8.46,1.95,1.95,-1.95,-1.93,-2.00,6.50,6.51,6.50
54.64,8.42,8.42,1.94,1.94,-1.94,-1.93,-2.01,6.48,6.48,6.48
55.18,8.39,8.39,1.94,1.93,-1.93,-1.93,-2.01,6.46,6.46,6.46
55.74,8.35,8.36,1.92,1.93,-1.92,-1.92,-2.02,6.43,6.44,6.43
56.29,8.33,8.33,1.92,1.92,-1.92,-1.92,-2.03,6.42,6.41,6.41
56.86,8.30,8.30,1.92,1.92,-1.91,-1.92,-2.04,6.39,6.39,6.39
57.42,8.27,8.28,1.91,1.92,-1.92,-1.92,-2.04,6.36,6.36,6.36
58.00,8.25,8.25,1.92,1.92,-1.93,-1.92,-2.05,6.33,6.32,6.33
58.58,8.23,8.23,1.93,1.93,-1.94,-1.93,-2.06,6.29,6.29,6.31
59.16,8.22,8.23,1.95,1.95,-1.97,-1.93,-2.06,6.26,6.26,6.28
59.76,8.22,8.23,1.97,1.98,-1.99,-1.93,-2.07,6.23,6.23,6.25
60.35,8.23,8.24,2.01,2.02,-2.02,-1.94,-2.08,6.22,6.22,6.22
60.96,8.24,8.24,2.05,2.05,-2.04,-1.94,-2.08,6.20,6.20,6.19
61.57,8.24,8.24,2.09,2.08,-2.05,-1.95,-2.08,6.19,6.19,6.16
62.18,8.21,8.21,2.09,2.09,-2.05,-1.95,-2.09,6.16,6.16,6.13
62.80,8.16,8.16,2.07,2.07,-2.04,-1.96,-2.09,6.12,6.12,6.09
63.43,8.09,8.10,2.04,2.04,-2.03,-1.97,-2.09,6.07,6.07,6.06
64.07,8.02,8.02,2.00,2.00,-2.00,-1.98,-2.09,6.02,6.02,6.02
64.71,7.94,7.95,1.96,1.96,-1.98,-1.99,-2.09,5.97,5.97,5.99
65.35,7.88,7.88,1.93,1.93,-1.96,-2.00,-2.09,5.93,5.93,5.95
66.01,7.82,7.83,1.91,1.92,-1.94,-2.01,-2.09,5.88,5.88,5.91
66.67,7.79,7.79,1.92,1.92,-1.94,-2.03,-2.09,5.85,5.85,5.87
67.33,7.77,7.77,1.94,1.94,-1.96,-2.04,-2.09,5.82,5.82,5.83
68.01,7.76,7.77,1.97,1.98,-1.97,-2.05,-2.09,5.79,5.79,5.79
68.69,7.76,7.76,2.01,2.01,-2.00,-2.07,-2.09,5.77,5.76,5.75
69.37,7.75,7.75,2.05,2.04,-2.02,-2.08,-2.08,5.73,5.73,5.71
70.07,7.73,7.73,2.07,2.07,-2.05,-2.10,-2.08,5.68,5.68,5.66
70.77,7.70,7.70,2.09,2.09,-2.08,-2.12,-2.08,5.63,5.63,5.62
71.48,7.67,7.67,2.10,2.10,-2.10,-2.14,-2.08,5.57,5.57,5.57
72.19,7.63,7.64,2.11,2.11,-2.12,-2.15,-2.08,5.51,5.51,5.52
72.91,7.60,7.61,2.13,2.13,-2.15,-2.17,-2.08,5.46,5.46,5.48
73.64,7.58,7.58,2.16,2.16,-2.17,-2.19,-2.07,5.42,5.42,5.43
74.38,7.56,7.56,2.19,2.19,-2.19,-2.21,-2.08,5.37,5.37,5.38
75.12,7.54,7.54,2.22,2.22,-2.21,-2.23,-2.08,5.33,5.33,5.32
75.87,7.51,7.51,2.24,2.24,-2.23,-2.25,-2.08,5.28,5.28,5.27
76.63,7.48,7.48,2.26,2.26,-2.25,-2.27,-2.08,5.23,5.23,5.22
77.40,7.44,7.44,2.28,2.28,-2.27,-2.30,-2.09,5.17,5.17,5.16
78.17,7.40,7.40,2.29,2.29,-2.29,-2.32,-2.09,5.11,5.11,5.11
78.95,7.35,7.35,2.30,2.30,-2.30,-2.34,-2.10,5.05,5.05,5.05
79.74,7.30,7.31,2.31,2.31,-2.31,-2.36,-2.11,4.99,4.99,5.00
80.54,7.26,7.26,2.33,2.32,-2.32,-2.38,-2.12,4.94,4.94,4.94
81.35,7.21,7.22,2.34,2.34,-2.34,-2.41,-2.13,4.88,4.88,4.88
82.16,7.17,7.17,2.36,2.35,-2.35,-2.43,-2.14,4.82,4.82,4.82
82.98,7.13,7.13,2.38,2.37,-2.37,-2.45,-2.15,4.77,4.76,4.76
83.81,7.08,7.09,2.39,2.39,-2.39,-2.47,-2.17,4.69,4.69,4.70
84.65,7.05,7.05,2.42,2.42,-2.43,-2.50,-2.19,4.62,4.62,4.63
85.50,7.01,7.02,2.44,2.45,-2.48,-2.52,-2.21,4.54,4.54,4.57
86.35,6.99,7.00,2.49,2.50,-2.53,-2.54,-2.23,4.47,4.47,4.50
87.22,6.99,7.00,2.55,2.56,-2.58,-2.56,-2.25,4.42,4.42,4.44
88.09,7.00,7.00,2.63,2.63,-2.63,-2.58,-2.27,4.38,4.38,4.37
88.97,7.00,7.01,2.70,2.70,-2.66,-2.60,-2.30,4.34,4.34,4.31
89.86,6.99,6.98,2.75,2.74,-2.69,-2.63,-2.33,4.30,4.29,4.24
90.76,6.93,6.93,2.76,2.76,-2.71,-2.65,-2.36,4.22,4.22,4.17
91.66,6.84,6.84,2.74,2.74,-2.72,-2.67,-2.39,4.12,4.12,4.10
92.58,6.73,6.74,2.70,2.70,-2.72,-2.69,-2.42,4.02,4.02,4.03
93.51,6.63,6.64,2.67,2.68,-2.70,-2.71,-2.46,3.93,3.94,3.96
94.44,6.55,6.55,2.66,2.66,-2.69,-2.73,-2.49,3.86,3.86,3.89
95.39,6.48,6.48,2.66,2.66,-2.68,-2.75,-2.53,3.80,3.80,3.82
96.34,6.42,6.42,2.67,2.67,-2.68,-2.76,-2.57,3.75,3.74,3.75
97.30,6.36,6.36,2.68,2.68,-2.68,-2.78,-2.61,3.68,3.68,3.68
98.28,6.30,6.31,2.70,2.70,-2.70,-2.80,-2.65,3.61,3.61,3.61
99.26,6.25,6.25,2.72,2.72,-2.71,-2.82,-2.69,3.54,3.54,3.54
100.25,6.20,6.20,2.74,2.74,-2.73,-2.84,-2.74,3.47,3.47,3.46
101.25,6.15,6.15,2.76,2.76,-2.76,-2.85,-2.78,3.40,3.40,3.39
102.27,6.09,6.10,2.78,2.78,-2.78,-2.87,-2.83,3.32,3.32,3.32
103.29,6.04,6.04,2.80,2.80,-2.79,-2.88,-2.87,3.25,3.25,3.25
104.32,5.98,5.98,2.81,2.81,-2.81,-2.90,-2.92,3.17,3.17,3.17
105.37,5.92,5.93,2.83,2.83,-2.83,-2.91,-2.96,3.09,3.10,3.10
106.42,5.87,5.87,2.85,2.85,-2.85,-2.92,-3.01,3.02,3.02,3.03
107.48,5.82,5.82,2.87,2.87,-2.87,-2.94,-3.05,2.96,2.95,2.95
108.56,5.76,5.76,2.88,2.88,-2.88,-2.95,-3.10,2.88,2.88,2.88
109.64,5.70,5.70,2.90,2.90,-2.89,-2.96,-3.14,2.81,2.81,2.81
110.74,5.64,5.64,2.91,2.91,-2.91,-2.97,-3.18,2.74,2.74,2.73
111.85,5.58,5.58,2.92,2.92,-2.92,-2.98,-3.22,2.67,2.67,2.66
112.97,5.52,5.52,2.93,2.93,-2.93,-2.99,-3.26,2.60,2.59,2.59
114.10,5.45,5.46,2.94,2.94,-2.94,-3.00,-3.29,2.52,2.52,2.52
115.24,5.39,5.39,2.95,2.95,-2.95,-3.01,-3.32,2.45,2.45,2.45
116.39,5.33,5.33,2.96,2.95,-2.96,-3.02,-3.35,2.37,2.37,2.38
117.55,5.27,5.28,2.97,2.97,-2.98,-3.02,-3.38,2.29,2.29,2.31
118.73,5.22,5.23,2.99,2.99,-3.00,-3.03,-3.40,2.22,2.22,2.24
119.92,5.18,5.19,3.02,3.02,-3.03,-3.04,-3.42,2.16,2.16,2.17
121.12,5.15,5.15,3.06,3.06,-3.05,-3.04,-3.44,2.10,2.10,2.10
122.33,5.12,5.12,3.09,3.09,-3.08,-3.04,-3.45,2.04,2.04,2.03
123.55,5.08,5.08,3.12,3.12,-3.11,-3.05,-3.45,1.98,1.97,1.96
124.79,5.03,5.04,3.14,3.14,-3.13,-3.05,-3.45,1.90,1.90,1.90
126.03,4.98,4.98,3.15,3.16,-3.16,-3.05,-3.45,1.83,1.83,1.83
127.29,4.93,4.93,3.17,3.17,-3.18,-3.05,-3.45,1.76,1.76,1.76
128.57,4.88,4.88,3.18,3.18,-3.19,-3.05,-3.44,1.69,1.69,1.70
129.85,4.83,4.83,3.20,3.20,-3.20,-3.05,-3.42,1.63,1.63,1.64
131.15,4.78,4.79,3.21,3.21,-3.21,-3.05,-3.40,1.57,1.57,1.57
132.46,4.73,4.73,3.22,3.22,-3.22,-3.05,-3.38,1.52,1.52,1.51
133.79,4.68,4.68,3.24,3.23,-3.22,-3.05,-3.35,1.47,1.46,1.45
135.12,4.61,4.61,3.23,3.23,-3.22,-3.04,-3.32,1.40,1.40,1.39
136.48,4.54,4.54,3.22,3.21,-3.21,-3.04,-3.29,1.33,1.33,1.33
137.84,4.46,4.47,3.19,3.20,-3.21,-3.03,-3.25,1.26,1.26,1.27
139.22,4.39,4.40,3.18,3.18,-3.20,-3.03,-3.22,1.20,1.20,1.21
140.61,4.33,4.34,3.18,3.18,-3.19,-3.02,-3.18,1.14,1.14,1.16
142.02,4.28,4.28,3.18,3.18,-3.18,-3.01,-3.13,1.10,1.10,1.10
143.44,4.22,4.22,3.18,3.18,-3.17,-3.01,-3.09,1.05,1.05,1.05
144.87,4.16,4.17,3.17,3.17,-3.16,-3.00,-3.05,1.00,1.00,0.99
146.32,4.10,4.10,3.16,3.16,-3.15,-2.99,-3.00,0.95,0.95,0.94
147.78,4.03,4.03,3.15,3.15,-3.14,-2.98,-2.95,0.89,0.89,0.89
149.26,3.96,3.96,3.13,3.13,-3.13,-2.97,-2.91,0.84,0.84,0.84
150.75,3.89,3.89,3.11,3.11,-3.11,-2.95,-2.86,0.79,0.79,0.79
152.26,3.82,3.82,3.08,3.08,-3.09,-2.94,-2.81,0.74,0.74,0.74
153.78,3.75,3.75,3.06,3.06,-3.07,-2.93,-2.76,0.69,0.69,0.69
155.32,3.68,3.69,3.04,3.04,-3.05,-2.91,-2.72,0.64,0.64,0.65
156.88,3.62,3.62,3.02,3.02,-3.03,-2.90,-2.67,0.60,0.60,0.60
158.44,3.56,3.56,3.01,3.00,-3.00,-2.88,-2.63,0.56,0.56,0.56
160.03,3.49,3.49,2.98,2.99,-2.98,-2.87,-2.59,0.51,0.51,0.51
161.63,3.42,3.42,2.96,2.96,-2.96,-2.85,-2.54,0.47,0.47,0.46
163.24,3.35,3.35,2.93,2.93,-2.93,-2.83,-2.50,0.42,0.42,0.42
164.88,3.28,3.28,2.91,2.91,-2.91,-2.82,-2.46,0.38,0.38,0.38
166.53,3.21,3.21,2.87,2.87,-2.88,-2.80,-2.42,0.33,0.33,0.34
168.19,3.14,3.15,2.84,2.85,-2.85,-2.78,-2.39,0.29,0.29,0.30
169.87,3.08,3.08,2.82,2.82,-2.83,-2.76,-2.35,0.26,0.26,0.26
171.57,3.02,3.02,2.80,2.80,-2.80,-2.74,-2.32,0.23,0.23,0.23
173.29,2.96,2.96,2.77,2.77,-2.77,-2.72,-2.29,0.19,0.20,0.19
175.02,2.90,2.90,2.75,2.74,-2.74,-2.70,-2.26,0.16,0.16,0.16
176.77,2.83,2.83,2.71,2.71,-2.71,-2.67,-2.23,0.13,0.13,0.12
178.54,2.76,2.77,2.67,2.67,-2.67,-2.65,-2.20,0.09,0.09,0.09
180.32,2.69,2.69,2.63,2.63,-2.63,-2.63,-2.18,0.06,0.06,0.06
182.13,2.62,2.62,2.60,2.59,-2.59,-2.61,-2.15,0.03,0.03,0.03
183.95,2.54,2.55,2.55,2.55,-2.55,-2.58,-2.13,-0.01,-0.00,-0.00
185.79,2.47,2.47,2.50,2.50,-2.51,-2.56,-2.11,-0.03,-0.03,-0.03
187.65,2.40,2.40,2.46,2.46,-2.46,-2.53,-2.09,-0.06,-0.06,-0.06
189.52,2.32,2.33,2.41,2.41,-2.42,-2.51,-2.08,-0.09,-0.09,-0.09
191.42,2.25,2.25,2.37,2.37,-2.37,-2.48,-2.06,-0.12,-0.12,-0.11
193.33,2.18,2.18,2.32,2.32,-2.32,-2.46,-2.05,-0.14,-0.14,-0.14
195.27,2.11,2.11,2.28,2.28,-2.28,-2.43,-2.04,-0.16,-0.16,-0.16
197.22,2.04,2.04,2.23,2.23,-2.23,-2.41,-2.03,-0.19,-0.19,-0.19
199.19,1.97,1.97,2.19,2.19,-2.18,-2.38,-2.02,-0.21,-0.21,-0.21
201.18,1.90,1.90,2.14,2.14,-2.13,-2.36,-2.01,-0.23,-0.23,-0.24
203.19,1.83,1.83,2.09,2.09,-2.09,-2.33,-2.00,-0.25,-0.25,-0.26
205.23,1.76,1.76,2.04,2.04,-2.04,-2.30,-2.00,-0.28,-0.28,-0.28
207.28,1.69,1.69,1.99,1.99,-2.00,-2.28,-1.99,-0.31,-0.30,-0.30
209.35,1.63,1.63,1.95,1.95,-1.96,-2.25,-1.99,-0.33,-0.33,-0.32
211.44,1.57,1.58,1.91,1.92,-1.92,-2.22,-1.98,-0.35,-0.35,-0.34
213.56,1.53,1.53,1.89,1.89,-1.89,-2.20,-1.98,-0.36,-0.37,-0.36
215.69,1.48,1.49,1.86,1.86,-1.87,-2.17,-1.97,-0.38,-0.38,-0.38
217.85,1.44,1.45,1.84,1.84,-1.84,-2.14,-1.97,-0.40,-0.39,-0.39
220.03,1.41,1.41,1.83,1.82,-1.82,-2.11,-1.97,-0.40,-0.41,-0.41
222.23,1.37,1.37,1.80,1.80,-1.79,-2.09,-1.97,-0.42,-0.42,-0.43
224.45,1.33,1.33,1.78,1.78,-1.77,-2.06,-1.96,-0.44,-0.44,-0.44
226.70,1.29,1.29,1.75,1.75,-1.75,-2.03,-1.96,-0.45,-0.45,-0.46
228.96,1.24,1.25,1.72,1.72,-1.72,-2.01,-1.95,-0.48,-0.47,-0.47
231.25,1.20,1.20,1.69,1.69,-1.69,-1.98,-1.95,-0.49,-0.49,-0.49
233.57,1.15,1.16,1.66,1.66,-1.67,-1.95,-1.94,-0.51,-0.51,-0.50
235.90,1.11,1.11,1.64,1.64,-1.64,-1.93,-1.94,-0.52,-0.52,-0.53
238.26,1.07,1.07,1.61,1.61,-1.61,-1.90,-1.93,-0.53,-0.53,-0.54
240.64,1.03,1.03,1.59,1.59,-1.58,-1.87,-1.92,-0.54,-0.54,-0.55
243.05,0.99,0.99,1.56,1.56,-1.55,-1.85,-1.91,-0.56,-0.56,-0.56
245.48,0.95,0.95,1.53,1.53,-1.53,-1.82,-1.90,-0.57,-0.57,-0.58
247.93,0.91,0.92,1.50,1.50,-1.51,-1.80,-1.89,-0.59,-0.59,-0.59
250.41,0.88,0.89,1.48,1.48,-1.49,-1.77,-1.87,-0.61,-0.61,-0.60
252.92,0.86,0.86,1.47,1.47,-1.48,-1.74,-1.86,-0.62,-0.62,-0.61
255.45,0.85,0.85,1.47,1.47,-1.48,-1.72,-1.84,-0.62,-0.63,-0.62
258.00,0.84,0.85,1.47,1.47,-1.48,-1.69,-1.82,-0.64,-0.64,-0.63
260.58,0.84,0.85,1.48,1.48,-1.49,-1.67,-1.80,-0.65,-0.64,-0.64
263.19,0.85,0.85,1.50,1.50,-1.50,-1.64,-1.78,-0.65,-0.65,-0.65
265.82,0.86,0.86,1.52,1.52,-1.52,-1.62,-1.76,-0.65,-0.65,-0.66
268.48,0.87,0.87,1.54,1.54,-1.53,-1.59,-1.74,-0.65,-0.66,-0.66
271.16,0.87,0.87,1.55,1.54,-1.54,-1.57,-1.71,-0.66,-0.66,-0.67
273.87,0.86,0.87,1.54,1.55,-1.54,-1.55,-1.69,-0.67,-0.67,-0.68
276.61,0.85,0.85,1.54,1.54,-1.53,-1.52,-1.66,-0.68,-0.68,-0.69
279.38,0.83,0.83,1.53,1.53,-1.53,-1.50,-1.63,-0.69,-0.69,-0.70
282.17,0.81,0.81,1.52,1.51,-1.51,-1.48,-1.60,-0.70,-0.70,-0.70
284.99,0.78,0.79,1.48,1.49,-1.49,-1.46,-1.58,-0.71,-0.70,-0.70
287.84,0.76,0.76,1.46,1.46,-1.47,-1.43,-1.55,-0.71,-0.71,-0.70
290.72,0.74,0.74,1.45,1.44,-1.44,-1.41,-1.52,-0.70,-0.70,-0.70
293.63,0.71,0.72,1.42,1.42,-1.42,-1.39,-1.49,-0.71,-0.70,-0.71
296.57,0.69,0.69,1.40,1.40,-1.40,-1.37,-1.46,-0.70,-0.70,-0.70
299.53,0.66,0.67,1.36,1.37,-1.37,-1.35,-1.43,-0.71,-0.71,-0.70
302.53,0.64,0.64,1.35,1.35,-1.35,-1.33,-1.40,-0.71,-0.71,-0.71
305.55,0.62,0.62,1.33,1.33,-1.33,-1.31,-1.37,-0.70,-0.71,-0.70
308.61,0.60,0.60,1.31,1.31,-1.31,-1.29,-1.34,-0.70,-0.71,-0.71
311.69,0.58,0.58,1.29,1.29,-1.29,-1.27,-1.31,-0.70,-0.70,-0.70
314.81,0.56,0.57,1.27,1.27,-1.27,-1.25,-1.29,-0.71,-0.70,-0.71
317.96,0.55,0.55,1.25,1.25,-1.25,-1.23,-1.26,-0.70,-0.70,-0.70
321.14,0.53,0.54,1.24,1.24,-1.24,-1.21,-1.23,-0.70,-0.70,-0.71
324.35,0.52,0.52,1.22,1.22,-1.22,-1.19,-1.20,-0.70,-0.70,-0.70
327.59,0.51,0.51,1.21,1.21,-1.21,-1.18,-1.18,-0.69,-0.70,-0.69
330.87,0.49,0.50,1.19,1.19,-1.19,-1.16,-1.15,-0.70,-0.70,-0.70
334.18,0.48,0.48,1.18,1.18,-1.18,-1.14,-1.13,-0.69,-0.69,-0.69
337.52,0.47,0.47,1.17,1.17,-1.16,-1.13,-1.10,-0.69,-0.69,-0.70
340.90,0.46,0.46,1.15,1.15,-1.15,-1.11,-1.08,-0.69,-0.69,-0.69
344.30,0.45,0.45,1.14,1.14,-1.14,-1.10,-1.06,-0.68,-0.68,-0.68
347.75,0.44,0.44,1.12,1.12,-1.12,-1.08,-1.04,-0.68,-0.68,-0.68
351.23,0.43,0.43,1.11,1.11,-1.11,-1.07,-1.02,-0.67,-0.67,-0.68
354.74,0.42,0.42,1.09,1.09,-1.09,-1.05,-1.00,-0.67,-0.67,-0.66
358.28,0.41,0.42,1.08,1.08,-1.08,-1.04,-0.98,-0.67,-0.66,-0.66
361.87,0.41,0.41,1.07,1.07,-1.07,-1.03,-0.96,-0.65,-0.66,-0.66
365.49,0.40,0.40,1.05,1.06,-1.06,-1.01,-0.94,-0.65,-0.65,-0.65
369.14,0.39,0.40,1.05,1.04,-1.04,-1.00,-0.92,-0.65,-0.65,-0.65
372.83,0.39,0.39,1.03,1.03,-1.03,-0.99,-0.91,-0.64,-0.64,-0.64
376.56,0.38,0.39,1.02,1.02,-1.02,-0.98,-0.89,-0.64,-0.64,-0.64
380.33,0.38,0.38,1.01,1.02,-1.02,-0.97,-0.88,-0.63,-0.63,-0.63
384.13,0.38,0.38,1.02,1.01,-1.01,-0.96,-0.86,-0.62,-0.63,-0.63
387.97,0.37,0.38,1.00,1.00,-1.00,-0.95,-0.85,-0.62,-0.62,-0.62
391.85,0.37,0.37,0.98,0.99,-0.99,-0.94,-0.84,-0.61,-0.61,-0.61
395.77,0.37,0.37,0.98,0.97,-0.98,-0.93,-0.82,-0.60,-0.61,-0.61
399.73,0.36,0.37,0.96,0.97,-0.97,-0.92,-0.81,-0.61,-0.60,-0.60
403.72,0.36,0.36,0.96,0.96,-0.96,-0.91,-0.80,-0.60,-0.60,-0.59
407.76,0.36,0.36,0.96,0.95,-0.95,-0.90,-0.79,-0.59,-0.59,-0.59
411.84,0.35,0.36,0.94,0.94,-0.94,-0.89,-0.78,-0.59,-0.58,-0.59
415.96,0.35,0.35,0.93,0.94,-0.93,-0.89,-0.77,-0.58,-0.58,-0.58
420.12,0.35,0.35,0.93,0.93,-0.93,-0.88,-0.76,-0.57,-0.58,-0.58
424.32,0.34,0.35,0.91,0.92,-0.92,-0.87,-0.75,-0.57,-0.57,-0.57
428.56,0.34,0.34,0.91,0.91,-0.91,-0.86,-0.74,-0.56,-0.57,-0.56
432.85,0.33,0.34,0.89,0.89,-0.90,-0.85,-0.73,-0.56,-0.56,-0.55
437.18,0.33,0.33,0.89,0.89,-0.88,-0.84,-0.72,-0.55,-0.55,-0.56
441.55,0.33,0.33,0.88,0.88,-0.87,-0.83,-0.71,-0.54,-0.54,-0.55
445.96,0.32,0.33,0.86,0.86,-0.86,-0.82,-0.70,-0.53,-0.53,-0.54
450.42,0.32,0.32,0.84,0.84,-0.85,-0.81,-0.69,-0.52,-0.52,-0.52
454.93,0.31,0.31,0.82,0.83,-0.83,-0.80,-0.69,-0.52,-0.52,-0.51
459.48,0.30,0.31,0.81,0.81,-0.82,-0.79,-0.68,-0.51,-0.51,-0.50
464.07,0.30,0.30,0.81,0.80,-0.80,-0.77,-0.67,-0.50,-0.50,-0.50
468.71,0.29,0.29,0.79,0.79,-0.78,-0.76,-0.66,-0.49,-0.49,-0.49
473.40,0.28,0.28,0.77,0.77,-0.77,-0.74,-0.65,-0.48,-0.48,-0.49
478.13,0.27,0.27,0.75,0.75,-0.75,-0.72,-0.64,-0.48,-0.48,-0.48
482.91,0.26,0.26,0.73,0.73,-0.73,-0.71,-0.63,-0.47,-0.47,-0.47
487.74,0.25,0.25,0.71,0.71,-0.71,-0.69,-0.61,-0.46,-0.46,-0.46
492.62,0.24,0.24,0.69,0.69,-0.69,-0.67,-0.60,-0.45,-0.45,-0.45
497.55,0.23,0.23,0.67,0.67,-0.67,-0.65,-0.59,-0.44,-0.44,-0.44
502.52,0.22,0.22,0.65,0.65,-0.65,-0.63,-0.58,-0.42,-0.42,-0.43
507.55,0.21,0.21,0.63,0.63,-0.63,-0.61,-0.57,-0.41,-0.42,-0.41
512.62,0.19,0.20,0.60,0.60,-0.60,-0.58,-0.55,-0.41,-0.41,-0.40
517.75,0.18,0.18,0.58,0.58,-0.58,-0.56,-0.54,-0.40,-0.40,-0.39
