frequency,raw,smoothed,error,error_smoothed,equalization,parametric_eq,fixed_band_eq,equalized_raw,equalized_smoothed,target
20.00,4.93,4.93,-2.11,-2.11,2.10,1.80,0.73,7.03,7.03,7.03
20.20,4.95,4.95,-2.08,-2.08,2.08,1.79,0.76,7.03,7.03,7.03
20.40,4.98,4.98,-2.05,-2.06,2.06,1.79,0.78,7.04,7.04,7.03
20.61,5.00,5.00,-2.03,-2.04,2.04,1.79,0.80,7.04,7.04,7.03
20.81,5.01,5.01,-2.02,-2.02,2.02,1.79,0.83,7.03,7.03,7.03
21.02,5.03,5.03,-2.00,-2.00,2.00,1.79,0.85,7.03,7.03,7.03
21.23,5.04,5.04,-1.99,-1.99,1.99,1.78,0.88,7.03,7.03,7.03
21.44,5.06,5.06,-1.97,-1.97,1.97,1.78,0.90,7.03,7.03,7.03
21.66,5.07,5.07,-1.96,-1.96,1.96,1.78,0.93,7.03,7.03,7.03
21.87,5.08,5.08,-1.95,-1.95,1.95,1.78,0.96,7.03,7.03,7.03
22.09,5.09,5.09,-1.94,-1.94,1.94,1.78,0.99,7.03,7.03,7.03
22.31,5.10,5.10,-1.93,-1.93,1.93,1.78,1.02,7.03,7.03,7.03
22.54,5.11,5.11,-1.92,-1.92,1.92,1.77,1.05,7.03,7.03,7.03
22.76,5.12,5.12,-1.91,-1.91,1.90,1.77,1.08,7.02,7.02,7.02
22.99,5.13,5.13,-1.89,-1.89,1.89,1.77,1.11,7.02,7.02,7.02
23.22,5.14,5.14,-1.88,-1.88,1.88,1.77,1.14,7.02,7.02,7.02
23.45,5.16,5.16,-1.86,-1.87,1.86,1.76,1.18,7.02,7.02,7.02
23.69,5.17,5.17,-1.85,-1.85,1.85,1.76,1.21,7.01,7.02,7.02
23.92,5.19,5.19,-1.83,-1.83,1.83,1.76,1.25,7.02,7.02,7.02
24.16,5.21,5.21,-1.81,-1.81,1.81,1.76,1.28,7.02,7.02,7.02
24.40,5.23,5.23,-1.79,-1.79,1.79,1.76,1.32,7.02,7.02,7.02
24.65,5.24,5.24,-1.78,-1.77,1.78,1.75,1.35,7.01,7.02,7.02
24.89,5.26,5.26,-1.75,-1.76,1.76,1.75,1.39,7.02,7.02,7.01
25.14,5.27,5.27,-1.74,-1.74,1.75,1.75,1.43,7.02,7.02,7.01
25.39,5.28,5.28,-1.73,-1.73,1.74,1.74,1.46,7.02,7.01,7.01
25.65,5.28,5.28,-1.73,-1.73,1.73,1.74,1.50,7.01,7.01,7.01
25.91,5.29,5.29,-1.72,-1.72,1.72,1.74,1.54,7.01,7.01,7.01
26.16,5.30,5.29,-1.71,-1.71,1.71,1.74,1.57,7.01,7.00,7.01
26.43,5.30,5.30,-1.71,-1.70,1.70,1.73,1.61,7.00,7.01,7.01
26.69,5.31,5.31,-1.69,-1.69,1.69,1.73,1.65,7.00,7.00,7.00
26.96,5.32,5.31,-1.68,-1.69,1.69,1.73,1.68,7.00,7.00,7.00
27.23,5.32,5.32,-1.68,-1.68,1.68,1.72,1.71,7.00,7.00,7.00
27.50,5.33,5.33,-1.67,-1.67,1.67,1.72,1.75,7.00,7.00,7.00
27.77,5.34,5.34,-1.66,-1.66,1.66,1.72,1.78,7.00,7.00,7.00
28.05,5.34,5.34,-1.66,-1.65,1.65,1.71,1.81,6.99,6.99,6.99
28.33,5.35,5.35,-1.64,-1.65,1.64,1.71,1.84,6.99,6.99,6.99
28.62,5.35,5.35,-1.64,-1.64,1.64,1.71,1.87,6.99,6.99,6.99
28.90,5.36,5.36,-1.63,-1.63,1.63,1.70,1.89,6.99,6.99,6.99
29.19,5.37,5.37,-1.62,-1.62,1.62,1.70,1.92,6.99,6.99,6.99
29.48,5.37,5.37,-1.61,-1.61,1.61,1.70,1.94,6.98,6.99,6.98
29.78,5.38,5.38,-1.60,-1.60,1.61,1.69,1.96,6.99,6.98,6.98
30.08,5.38,5.38,-1.60,-1.60,1.60,1.69,1.97,6.98,6.98,6.98
30.38,5.38,5.38,-1.60,-1.59,1.59,1.69,1.98,6.97,6.97,6.98
30.68,5.39,5.39,-1.58,-1.59,1.58,1.68,1.99,6.97,6.97,6.97
30.99,5.39,5.39,-1.58,-1.58,1.58,1.68,2.00,6.96,6.97,6.97
31.30,5.40,5.40,-1.57,-1.57,1.57,1.67,2.01,6.97,6.96,6.97
31.61,5.40,5.40,-1.56,-1.56,1.56,1.67,2.01,6.96,6.96,6.96
31.93,5.41,5.41,-1.55,-1.55,1.55,1.66,2.01,6.96,6.96,6.96
32.24,5.42,5.42,-1.54,-1.54,1.54,1.66,2.00,6.96,6.96,6.96
32.57,5.42,5.42,-1.53,-1.53,1.54,1.66,2.00,6.96,6.96,6.95
32.89,5.42,5.42,-1.53,-1.53,1.53,1.65,1.99,6.95,6.95,6.95
33.22,5.42,5.42,-1.53,-1.53,1.52,1.65,1.98,6.94,6.94,6.95
33.55,5.42,5.42,-1.52,-1.52,1.52,1.64,1.96,6.94,6.94,6.94
33.89,5.43,5.43,-1.51,-1.51,1.51,1.64,1.95,6.94,6.94,6.94
34.23,5.43,5.43,-1.50,-1.50,1.51,1.63,1.93,6.93,6.93,6.93
34.57,5.43,5.43,-1.50,-1.50,1.50,1.63,1.91,6.93,6.93,6.93
34.92,5.43,5.43,-1.50,-1.49,1.50,1.62,1.89,6.93,6.93,6.92
35.27,5.43,5.43,-1.49,-1.49,1.49,1.61,1.86,6.92,6.92,6.92
35.62,5.43,5.43,-1.49,-1.49,1.49,1.61,1.84,6.92,6.91,6.91
35.97,5.42,5.42,-1.49,-1.49,1.49,1.60,1.82,6.91,6.91,6.91
36.33,5.42,5.42,-1.49,-1.48,1.48,1.60,1.79,6.90,6.90,6.90
36.70,5.42,5.42,-1.48,-1.48,1.48,1.59,1.76,6.90,6.90,6.90
37.06,5.42,5.42,-1.47,-1.48,1.48,1.59,1.74,6.90,6.89,6.89
37.43,5.41,5.41,-1.48,-1.48,1.47,1.58,1.71,6.88,6.89,6.89
37.81,5.41,5.41,-1.47,-1.47,1.47,1.57,1.68,6.88,6.88,6.88
38.19,5.41,5.41,-1.47,-1.47,1.46,1.57,1.65,6.87,6.87,6.88
38.57,5.41,5.41,-1.46,-1.46,1.46,1.56,1.63,6.87,6.87,6.87
38.95,5.41,5.41,-1.45,-1.45,1.45,1.55,1.60,6.86,6.86,6.86
39.34,5.41,5.41,-1.45,-1.45,1.45,1.55,1.57,6.85,6.85,6.85
39.74,5.41,5.41,-1.44,-1.44,1.44,1.54,1.55,6.85,6.85,6.85
40.14,5.41,5.41,-1.43,-1.43,1.43,1.53,1.52,6.84,6.84,6.84
40.54,5.41,5.41,-1.42,-1.42,1.42,1.52,1.50,6.83,6.83,6.83
40.94,5.41,5.41,-1.41,-1.42,1.42,1.52,1.47,6.83,6.82,6.82
41.35,5.40,5.40,-1.42,-1.41,1.41,1.51,1.45,6.81,6.82,6.82
41.76,5.40,5.40,-1.41,-1.41,1.41,1.50,1.43,6.81,6.81,6.81
42.18,5.40,5.40,-1.40,-1.40,1.40,1.49,1.41,6.80,6.80,6.80
42.60,5.39,5.39,-1.40,-1.40,1.40,1.48,1.39,6.79,6.79,6.79
43.03,5.39,5.39,-1.39,-1.39,1.39,1.47,1.37,6.78,6.78,6.78
43.46,5.38,5.38,-1.39,-1.39,1.39,1.47,1.35,6.77,6.77,6.77
43.90,5.38,5.38,-1.38,-1.38,1.38,1.46,1.33,6.76,6.76,6.76
44.33,5.37,5.37,-1.38,-1.38,1.38,1.45,1.32,6.74,6.75,6.75
44.78,5.37,5.37,-1.37,-1.37,1.37,1.44,1.30,6.74,6.74,6.74
45.23,5.36,5.36,-1.36,-1.37,1.37,1.43,1.29,6.72,6.72,6.72
45.68,5.35,5.35,-1.36,-1.36,1.36,1.42,1.28,6.71,6.71,6.71
46.13,5.35,5.35,-1.35,-1.35,1.35,1.41,1.26,6.70,6.70,6.70
46.60,5.34,5.34,-1.35,-1.35,1.35,1.40,1.25,6.69,6.69,6.69
47.06,5.33,5.33,-1.34,-1.34,1.34,1.39,1.24,6.67,6.67,6.67
47.53,5.32,5.32,-1.34,-1.34,1.34,1.38,1.24,6.66,6.66,6.66
48.01,5.32,5.32,-1.33,-1.33,1.33,1.37,1.23,6.65,6.64,6.65
48.49,5.31,5.31,-1.32,-1.32,1.32,1.35,1.22,6.63,6.63,6.63
48.97,5.30,5.30,-1.32,-1.31,1.31,1.34,1.21,6.61,6.61,6.62
49.46,5.29,5.29,-1.31,-1.31,1.31,1.33,1.21,6.60,6.60,6.60
49.96,5.29,5.29,-1.29,-1.30,1.30,1.32,1.20,6.59,6.58,6.58
50.46,5.28,5.28,-1.29,-1.29,1.29,1.31,1.20,6.57,6.57,6.57
50.96,5.27,5.27,-1.28,-1.28,1.28,1.29,1.20,6.55,6.55,6.55
51.47,5.26,5.25,-1.27,-1.28,1.27,1.28,1.19,6.53,6.53,6.53
51.99,5.24,5.24,-1.27,-1.27,1.27,1.27,1.19,6.51,6.51,6.51
52.51,5.23,5.23,-1.26,-1.26,1.26,1.25,1.19,6.49,6.49,6.49
53.03,5.23,5.22,-1.24,-1.25,1.25,1.24,1.19,6.48,6.47,6.47
53.56,5.21,5.21,-1.24,-1.24,1.24,1.23,1.18,6.45,6.45,6.45
54.10,5.20,5.20,-1.23,-1.23,1.23,1.21,1.18,6.43,6.43,6.43
54.64,5.18,5.19,-1.23,-1.22,1.22,1.20,1.18,6.40,6.41,6.41
55.18,5.18,5.18,-1.21,-1.21,1.21,1.18,1.17,6.39,6.39,6.39
55.74,5.17,5.16,-1.19,-1.20,1.20,1.16,1.17,6.37,6.37,6.36
56.29,5.15,5.15,-1.19,-1.19,1.19,1.15,1.17,6.34,6.34,6.34
56.86,5.13,5.13,-1.18,-1.18,1.18,1.13,1.16,6.30,6.31,6.31
57.42,5.12,5.12,-1.17,-1.17,1.16,1.12,1.16,6.28,6.28,6.29
58.00,5.11,5.11,-1.15,-1.15,1.14,1.10,1.15,6.25,6.25,6.26
58.58,5.11,5.11,-1.13,-1.12,1.12,1.08,1.14,6.23,6.23,6.23
59.16,5.11,5.11,-1.10,-1.10,1.10,1.06,1.13,6.21,6.21,6.21
59.76,5.11,5.11,-1.07,-1.07,1.09,1.04,1.12,6.20,6.19,6.18
60.35,5.10,5.09,-1.05,-1.05,1.07,1.03,1.11,6.17,6.16,6.15
60.96,5.07,5.07,-1.05,-1.05,1.05,1.01,1.10,6.12,6.12,6.12
61.57,5.04,5.04,-1.05,-1.04,1.03,0.99,1.08,6.07,6.08,6.09
62.18,5.02,5.02,-1.03,-1.03,1.02,0.97,1.07,6.04,6.04,6.05
62.80,5.01,5.01,-1.01,-1.01,1.00,0.95,1.05,6.01,6.01,6.02
63.43,5.00,5.00,-0.99,-0.99,0.99,0.93,1.03,5.99,5.99,5.99
64.07,4.99,4.99,-0.96,-0.96,0.97,0.90,1.01,5.96,5.96,5.95
64.71,4.97,4.97,-0.95,-0.95,0.95,0.88,0.99,5.92,5.92,5.91
65.35,4.95,4.95,-0.93,-0.93,0.93,0.86,0.96,5.88,5.88,5.88
66.01,4.93,4.93,-0.91,-0.91,0.91,0.84,0.94,5.84,5.84,5.84
66.67,4.92,4.91,-0.88,-0.89,0.88,0.82,0.91,5.80,5.80,5.80
67.33,4.90,4.90,-0.86,-0.86,0.86,0.79,0.88,5.76,5.76,5.76
68.01,4.88,4.88,-0.84,-0.84,0.83,0.77,0.85,5.71,5.72,5.72
68.69,4.87,4.87,-0.81,-0.81,0.81,0.74,0.82,5.68,5.68,5.68
69.37,4.85,4.85,-0.79,-0.78,0.78,0.72,0.79,5.63,5.64,5.63
70.07,4.84,4.84,-0.75,-0.75,0.76,0.69,0.75,5.60,5.60,5.59
70.77,4.82,4.82,-0.73,-0.73,0.73,0.67,0.72,5.55,5.55,5.55
71.48,4.80,4.80,-0.70,-0.70,0.71,0.64,0.68,5.50,5.50,5.50
72.19,4.77,4.77,-0.68,-0.68,0.68,0.61,0.64,5.45,5.45,5.45
72.91,4.74,4.75,-0.66,-0.66,0.65,0.59,0.61,5.39,5.40,5.40
73.64,4.73,4.73,-0.63,-0.62,0.62,0.56,0.57,5.35,5.35,5.35
74.38,4.72,4.71,-0.58,-0.59,0.59,0.53,0.53,5.31,5.31,5.30
75.12,4.70,4.70,-0.55,-0.56,0.56,0.50,0.49,5.26,5.26,5.25
75.87,4.67,4.67,-0.53,-0.53,0.53,0.47,0.45,5.20,5.20,5.20
76.63,4.65,4.65,-0.50,-0.50,0.50,0.44,0.41,5.15,5.15,5.15
77.40,4.63,4.63,-0.46,-0.46,0.46,0.41,0.37,5.09,5.09,5.09
78.17,4.61,4.61,-0.43,-0.43,0.43,0.38,0.33,5.04,5.04,5.04
78.95,4.59,4.59,-0.39,-0.39,0.39,0.35,0.29,4.98,4.98,4.98
79.74,4.57,4.57,-0.35,-0.36,0.36,0.31,0.25,4.93,4.92,4.92
80.54,4.54,4.54,-0.33,-0.32,0.32,0.28,0.20,4.86,4.86,4.87
81.35,4.52,4.52,-0.29,-0.29,0.28,0.25,0.16,4.80,4.80,4.81
82.16,4.50,4.50,-0.25,-0.25,0.25,0.21,0.12,4.75,4.75,4.75
82.98,4.48,4.48,-0.21,-0.21,0.21,0.18,0.08,4.69,4.69,4.69
83.81,4.46,4.46,-0.16,-0.17,0.17,0.15,0.03,4.63,4.62,4.62
84.65,4.43,4.43,-0.13,-0.13,0.13,0.11,-0.01,4.56,4.56,4.56
85.50,4.41,4.41,-0.09,-0.09,0.09,0.08,-0.05,4.50,4.50,4.50
86.35,4.39,4.38,-0.04,-0.05,0.05,0.04,-0.10,4.44,4.43,4.43
87.22,4.36,4.36,-0.01,-0.01,0.01,0.00,-0.14,4.37,4.37,4.37
88.09,4.33,4.33,0.03,0.03,-0.04,-0.03,-0.18,4.29,4.30,4.30
88.97,4.31,4.31,0.07,0.07,-0.08,-0.07,-0.23,4.23,4.23,4.23
89.86,4.29,4.29,0.12,0.12,-0.12,-0.11,-0.27,4.17,4.17,4.17
90.76,4.27,4.26,0.17,0.17,-0.16,-0.15,-0.31,4.11,4.10,4.10
91.66,4.24,4.24,0.21,0.21,-0.20,-0.18,-0.36,4.04,4.03,4.03
92.58,4.20,4.21,0.24,0.24,-0.25,-0.22,-0.40,3.95,3.96,3.96
93.51,4.18,4.18,0.29,0.28,-0.29,-0.26,-0.45,3.89,3.89,3.89
94.44,4.15,4.15,0.33,0.33,-0.33,-0.30,-0.49,3.82,3.82,3.82
95.39,4.13,4.13,0.38,0.38,-0.37,-0.34,-0.54,3.75,3.75,3.75
96.34,4.10,4.10,0.42,0.42,-0.42,-0.38,-0.58,3.68,3.68,3.68
97.30,4.07,4.07,0.46,0.46,-0.46,-0.42,-0.63,3.61,3.61,3.61
98.28,4.04,4.04,0.50,0.51,-0.51,-0.46,-0.67,3.53,3.54,3.54
99.26,4.02,4.02,0.56,0.55,-0.55,-0.50,-0.72,3.47,3.46,3.46
100.25,3.99,3.99,0.60,0.60,-0.60,-0.54,-0.76,3.39,3.39,3.39
101.25,3.96,3.96,0.64,0.64,-0.64,-0.58,-0.80,3.32,3.32,3.32
102.27,3.93,3.93,0.68,0.68,-0.69,-0.63,-0.85,3.24,3.24,3.25
103.29,3.90,3.90,0.73,0.73,-0.73,-0.67,-0.89,3.17,3.17,3.17
104.32,3.88,3.87,0.78,0.77,-0.77,-0.71,-0.94,3.11,3.10,3.10
105.37,3.85,3.85,0.82,0.82,-0.82,-0.75,-0.98,3.03,3.03,3.03
106.42,3.81,3.82,0.86,0.86,-0.86,-0.79,-1.02,2.95,2.96,2.95
107.48,3.79,3.79,0.91,0.90,-0.91,-0.83,-1.06,2.88,2.88,2.88
108.56,3.76,3.75,0.95,0.94,-0.95,-0.87,-1.10,2.81,2.80,2.81
109.64,3.72,3.73,0.98,0.99,-0.99,-0.92,-1.14,2.73,2.74,2.74
110.74,3.69,3.70,1.03,1.03,-1.03,-0.96,-1.18,2.66,2.66,2.66
111.85,3.68,3.66,1.09,1.07,-1.07,-1.00,-1.22,2.61,2.59,2.59
112.97,3.63,3.63,1.11,1.11,-1.11,-1.04,-1.26,2.52,2.52,2.52
114.10,3.59,3.60,1.14,1.15,-1.15,-1.08,-1.29,2.44,2.45,2.45
115.24,3.56,3.56,1.18,1.18,-1.19,-1.12,-1.33,2.37,2.37,2.38
116.39,3.53,3.53,1.22,1.22,-1.22,-1.16,-1.36,2.31,2.31,2.30
117.55,3.50,3.50,1.26,1.26,-1.26,-1.20,-1.39,2.24,2.24,2.23
118.73,3.46,3.46,1.29,1.29,-1.30,-1.24,-1.42,2.16,2.16,2.16
119.92,3.42,3.42,1.32,1.33,-1.33,-1.28,-1.44,2.09,2.09,2.09
121.12,3.39,3.39,1.36,1.37,-1.37,-1.32,-1.47,2.02,2.02,2.03
122.33,3.37,3.36,1.41,1.41,-1.41,-1.36,-1.49,1.96,1.96,1.96
123.55,3.34,3.34,1.45,1.45,-1.44,-1.39,-1.51,1.90,1.90,1.89
124.79,3.30,3.30,1.48,1.48,-1.47,-1.43,-1.53,1.82,1.83,1.82
126.03,3.27,3.27,1.51,1.51,-1.51,-1.47,-1.54,1.76,1.76,1.76
127.29,3.23,3.23,1.54,1.54,-1.54,-1.50,-1.56,1.69,1.69,1.69
128.57,3.20,3.20,1.57,1.57,-1.57,-1.54,-1.57,1.63,1.63,1.63
129.85,3.16,3.16,1.60,1.60,-1.60,-1.57,-1.58,1.56,1.56,1.56
131.15,3.13,3.13,1.63,1.63,-1.63,-1.61,-1.59,1.50,1.50,1.50
132.46,3.09,3.09,1.65,1.66,-1.66,-1.64,-1.59,1.43,1.43,1.44
133.79,3.07,3.07,1.69,1.69,-1.69,-1.68,-1.59,1.38,1.38,1.38
135.12,3.04,3.04,1.72,1.72,-1.72,-1.71,-1.60,1.32,1.32,1.32
136.48,3.01,3.01,1.75,1.75,-1.75,-1.74,-1.60,1.26,1.26,1.26
137.84,2.97,2.97,1.77,1.77,-1.77,-1.77,-1.60,1.20,1.20,1.20
139.22,2.94,2.94,1.80,1.80,-1.80,-1.80,-1.60,1.14,1.14,1.14
140.61,2.90,2.90,1.81,1.82,-1.82,-1.83,-1.59,1.08,1.09,1.08
142.02,2.87,2.87,1.84,1.84,-1.84,-1.86,-1.59,1.03,1.03,1.03
143.44,2.84,2.83,1.87,1.86,-1.85,-1.88,-1.59,0.99,0.98,0.97
144.87,2.78,2.79,1.86,1.87,-1.87,-1.91,-1.58,0.91,0.93,0.92
146.32,2.75,2.75,1.88,1.88,-1.88,-1.93,-1.58,0.87,0.87,0.87
147.78,2.71,2.70,1.89,1.89,-1.89,-1.96,-1.57,0.82,0.81,0.82
149.26,2.66,2.66,1.89,1.90,-1.90,-1.98,-1.57,0.76,0.76,0.77
150.75,2.62,2.63,1.90,1.91,-1.91,-2.00,-1.56,0.71,0.71,0.72
152.26,2.60,2.59,1.93,1.92,-1.92,-2.03,-1.56,0.68,0.67,0.67
153.78,2.56,2.56,1.94,1.94,-1.94,-2.05,-1.56,0.62,0.62,0.62
155.32,2.53,2.53,1.96,1.96,-1.96,-2.06,-1.55,0.57,0.57,0.57
156.88,2.50,2.50,1.97,1.97,-1.98,-2.08,-1.55,0.52,0.52,0.53
158.44,2.49,2.48,2.01,2.00,-2.01,-2.10,-1.55,0.48,0.48,0.48
160.03,2.47,2.47,2.03,2.03,-2.04,-2.11,-1.55,0.43,0.43,0.44
161.63,2.46,2.46,2.07,2.07,-2.07,-2.13,-1.55,0.39,0.39,0.39
163.24,2.45,2.45,2.10,2.10,-2.10,-2.14,-1.55,0.35,0.35,0.35
164.88,2.44,2.44,2.13,2.13,-2.13,-2.15,-1.55,0.31,0.31,0.31
166.53,2.43,2.43,2.16,2.16,-2.15,-2.17,-1.55,0.28,0.27,0.27
168.19,2.41,2.41,2.18,2.18,-2.17,-2.17,-1.56,0.23,0.24,0.23
169.87,2.39,2.39,2.20,2.20,-2.19,-2.18,-1.56,0.20,0.20,0.19
171.57,2.36,2.36,2.20,2.20,-2.20,-2.19,-1.57,0.16,0.16,0.15
173.29,2.33,2.33,2.21,2.21,-2.21,-2.20,-1.58,0.12,0.12,0.12
175.02,2.30,2.30,2.21,2.22,-2.22,-2.20,-1.59,0.08,0.08,0.08
176.77,2.27,2.27,2.22,2.22,-2.22,-2.21,-1.60,0.05,0.05,0.05
178.54,2.24,2.24,2.22,2.22,-2.22,-2.21,-1.61,0.02,0.01,0.02
180.32,2.20,2.21,2.21,2.22,-2.22,-2.21,-1.62,-0.02,-0.02,-0.01
182.13,2.18,2.18,2.22,2.22,-2.22,-2.21,-1.63,-0.04,-0.04,-0.04
183.95,2.16,2.15,2.23,2.23,-2.22,-2.21,-1.65,-0.06,-0.07,-0.07
185.79,2.12,2.12,2.22,2.23,-2.22,-2.21,-1.67,-0.10,-0.10,-0.10
187.65,2.09,2.09,2.22,2.22,-2.22,-2.21,-1.68,-0.13,-0.13,-0.13
189.52,2.06,2.06,2.22,2.22,-2.22,-2.20,-1.70,-0.16,-0.16,-0.16
191.42,2.03,2.03,2.21,2.22,-2.21,-2.20,-1.72,-0.19,-0.18,-0.19
193.33,2.00,2.00,2.21,2.21,-2.21,-2.19,-1.74,-0.21,-0.21,-0.21
195.27,1.97,1.97,2.21,2.20,-2.20,-2.19,-1.77,-0.23,-0.24,-0.24
197.22,1.93,1.93,2.19,2.19,-2.19,-2.18,-1.79,-0.26,-0.26,-0.26
199.19,1.90,1.90,2.18,2.18,-2.18,-2.17,-1.81,-0.28,-0.28,-0.28
201.18,1.87,1.86,2.18,2.17,-2.17,-2.16,-1.84,-0.30,-0.31,-0.31
203.19,1.83,1.83,2.16,2.16,-2.16,-2.15,-1.86,-0.33,-0.33,-0.33
205.23,1.80,1.80,2.15,2.15,-2.15,-2.14,-1.89,-0.35,-0.35,-0.35
207.28,1.77,1.76,2.14,2.14,-2.14,-2.13,-1.91,-0.37,-0.37,-0.37
209.35,1.73,1.73,2.12,2.13,-2.12,-2.12,-1.94,-0.40,-0.39,-0.39
211.44,1.70,1.70,2.11,2.11,-2.11,-2.10,-1.96,-0.41,-0.41,-0.41
213.56,1.67,1.66,2.10,2.10,-2.10,-2.09,-1.99,-0.43,-0.43,-0.43
215.69,1.63,1.63,2.08,2.08,-2.08,-2.07,-2.01,-0.45,-0.45,-0.45
217.85,1.60,1.60,2.07,2.07,-2.06,-2.06,-2.04,-0.47,-0.47,-0.47
220.03,1.57,1.56,2.05,2.05,-2.05,-2.04,-2.06,-0.48,-0.48,-0.48
222.23,1.53,1.53,2.03,2.03,-2.03,-2.03,-2.08,-0.50,-0.50,-0.50
224.45,1.50,1.50,2.01,2.01,-2.01,-2.01,-2.10,-0.52,-0.52,-0.52
226.70,1.47,1.46,2.00,2.00,-2.00,-1.99,-2.12,-0.53,-0.53,-0.53
228.96,1.43,1.43,1.98,1.98,-1.98,-1.97,-2.14,-0.55,-0.55,-0.55
231.25,1.40,1.40,1.96,1.96,-1.96,-1.95,-2.15,-0.56,-0.56,-0.56
233.57,1.37,1.37,1.94,1.94,-1.94,-1.93,-2.16,-0.57,-0.58,-0.57
235.90,1.33,1.33,1.93,1.93,-1.92,-1.91,-2.17,-0.60,-0.59,-0.60
238.26,1.30,1.30,1.91,1.91,-1.91,-1.89,-2.18,-0.61,-0.61,-0.61
240.64,1.26,1.26,1.88,1.89,-1.89,-1.87,-2.19,-0.63,-0.62,-0.62
243.05,1.23,1.23,1.86,1.87,-1.87,-1.85,-2.19,-0.64,-0.64,-0.64
245.48,1.20,1.20,1.85,1.85,-1.85,-1.83,-2.19,-0.65,-0.65,-0.65
247.93,1.17,1.17,1.83,1.83,-1.83,-1.81,-2.18,-0.66,-0.66,-0.66
250.41,1.14,1.14,1.81,1.81,-1.81,-1.78,-2.17,-0.67,-0.67,-0.67
252.92,1.11,1.11,1.79,1.79,-1.79,-1.76,-2.16,-0.68,-0.68,-0.68
255.45,1.08,1.08,1.77,1.77,-1.77,-1.74,-2.15,-0.69,-0.69,-0.69
258.00,1.05,1.05,1.75,1.75,-1.75,-1.71,-2.13,-0.70,-0.70,-0.70
260.58,1.03,1.03,1.74,1.74,-1.73,-1.69,-2.11,-0.71,-0.71,-0.71
263.19,1.00,1.00,1.72,1.72,-1.72,-1.67,-2.09,-0.72,-0.72,-0.72
265.82,0.97,0.97,1.70,1.70,-1.70,-1.64,-2.06,-0.73,-0.73,-0.73
268.48,0.94,0.94,1.68,1.68,-1.68,-1.62,-2.03,-0.74,-0.74,-0.74
271.16,0.92,0.92,1.66,1.66,-1.66,-1.60,-2.00,-0.74,-0.75,-0.74
273.87,0.89,0.89,1.64,1.64,-1.64,-1.57,-1.97,-0.75,-0.75,-0.75
276.61,0.86,0.86,1.62,1.62,-1.62,-1.55,-1.93,-0.76,-0.76,-0.76
279.38,0.83,0.83,1.60,1.60,-1.60,-1.52,-1.89,-0.77,-0.76,-0.77
282.17,0.81,0.81,1.58,1.58,-1.57,-1.50,-1.85,-0.76,-0.77,-0.77
284.99,0.78,0.78,1.55,1.55,-1.55,-1.47,-1.81,-0.77,-0.77,-0.77
287.84,0.75,0.75,1.52,1.52,-1.52,-1.45,-1.77,-0.77,-0.77,-0.77
290.72,0.72,0.72,1.49,1.49,-1.50,-1.43,-1.72,-0.78,-0.78,-0.77
293.63,0.69,0.69,1.47,1.47,-1.47,-1.40,-1.68,-0.78,-0.78,-0.78
296.57,0.66,0.66,1.44,1.44,-1.44,-1.38,-1.63,-0.78,-0.78,-0.78
299.53,0.64,0.64,1.41,1.41,-1.41,-1.35,-1.59,-0.77,-0.78,-0.77
302.53,0.61,0.61,1.39,1.38,-1.38,-1.33,-1.54,-0.77,-0.78,-0.78
305.55,0.58,0.58,1.35,1.36,-1.36,-1.30,-1.49,-0.78,-0.78,-0.77
308.61,0.55,0.55,1.33,1.33,-1.33,-1.28,-1.44,-0.78,-0.78,-0.78
311.69,0.53,0.52,1.30,1.30,-1.30,-1.25,-1.40,-0.77,-0.78,-0.77
314.81,0.50,0.50,1.28,1.28,-1.27,-1.23,-1.35,-0.78,-0.78,-0.78
317.96,0.47,0.47,1.24,1.25,-1.25,-1.20,-1.30,-0.78,-0.77,-0.77
321.14,0.45,0.45,1.23,1.22,-1.22,-1.18,-1.26,-0.77,-0.77,-0.78
324.35,0.42,0.42,1.19,1.19,-1.19,-1.16,-1.21,-0.77,-0.77,-0.77
327.59,0.40,0.40,1.16,1.16,-1.16,-1.13,-1.16,-0.77,-0.77,-0.77
330.87,0.37,0.37,1.14,1.14,-1.14,-1.11,-1.12,-0.77,-0.77,-0.77
334.18,0.34,0.34,1.10,1.11,-1.11,-1.08,-1.07,-0.77,-0.77,-0.76
337.52,0.32,0.32,1.09,1.08,-1.08,-1.06,-1.03,-0.76,-0.76,-0.77
340.90,0.29,0.29,1.05,1.05,-1.05,-1.03,-0.98,-0.76,-0.76,-0.76
344.30,0.27,0.27,1.02,1.03,-1.02,-1.01,-0.94,-0.75,-0.75,-0.75
347.75,0.25,0.24,1.00,0.99,-1.00,-0.99,-0.90,-0.75,-0.75,-0.75
351.23,0.22,0.22,0.97,0.97,-0.97,-0.96,-0.85,-0.75,-0.75,-0.75
354.74,0.20,0.20,0.93,0.94,-0.94,-0.94,-0.81,-0.74,-0.74,-0.73
358.28,0.18,0.18,0.92,0.91,-0.91,-0.91,-0.77,-0.73,-0.73,-0.74
361.87,0.16,0.16,0.89,0.89,-0.89,-0.89,-0.73,-0.73,-0.73,-0.73
365.49,0.14,0.14,0.86,0.86,-0.86,-0.87,-0.69,-0.72,-0.72,-0.72
369.14,0.11,0.11,0.83,0.83,-0.83,-0.84,-0.65,-0.72,-0.72,-0.72
372.83,0.09,0.09,0.80,0.80,-0.80,-0.82,-0.61,-0.71,-0.71,-0.71
376.56,0.07,0.06,0.78,0.77,-0.78,-0.80,-0.58,-0.71,-0.71,-0.71
380.33,0.04,0.04,0.74,0.75,-0.75,-0.77,-0.54,-0.71,-0.71,-0.70
384.13,0.02,0.02,0.72,0.72,-0.72,-0.75,-0.50,-0.70,-0.70,-0.70
387.97,-0.00,-0.00,0.70,0.69,-0.69,-0.73,-0.47,-0.69,-0.69,-0.70
391.85,-0.02,-0.02,0.66,0.67,-0.66,-0.70,-0.43,-0.68,-0.68,-0.68
395.77,-0.04,-0.04,0.64,0.64,-0.64,-0.68,-0.40,-0.68,-0.68,-0.68
399.73,-0.06,-0.06,0.61,0.61,-0.61,-0.66,-0.36,-0.67,-0.67,-0.67
403.72,-0.09,-0.09,0.57,0.58,-0.58,-0.63,-0.33,-0.67,-0.67,-0.66
407.76,-0.11,-0.11,0.56,0.55,-0.55,-0.61,-0.30,-0.67,-0.67,-0.67
411.84,-0.13,-0.13,0.53,0.53,-0.53,-0.59,-0.27,-0.66,-0.66,-0.66
415.96,-0.15,-0.15,0.50,0.50,-0.50,-0.56,-0.24,-0.65,-0.65,-0.65
420.12,-0.17,-0.17,0.48,0.48,-0.48,-0.54,-0.20,-0.65,-0.65,-0.65
424.32,-0.19,-0.19,0.45,0.45,-0.45,-0.51,-0.17,-0.64,-0.64,-0.64
428.56,-0.21,-0.21,0.42,0.43,-0.42,-0.49,-0.15,-0.63,-0.63,-0.63
432.85,-0.23,-0.23,0.40,0.40,-0.40,-0.47,-0.12,-0.63,-0.63,-0.63
437.18,-0.25,-0.26,0.38,0.37,-0.37,-0.44,-0.09,-0.62,-0.62,-0.63
441.55,-0.28,-0.28,0.34,0.34,-0.34,-0.42,-0.06,-0.62,-0.62,-0.62
445.96,-0.30,-0.30,0.31,0.31,-0.31,-0.40,-0.04,-0.61,-0.61,-0.61
450.42,-0.31,-0.32,0.28,0.28,-0.28,-0.37,-0.01,-0.59,-0.60,-0.59
454.93,-0.33,-0.33,0.25,0.25,-0.26,-0.35,0.01,-0.59,-0.59,-0.58
459.48,-0.35,-0.35,0.22,0.23,-0.23,-0.32,0.04,-0.58,-0.58,-0.57
464.07,-0.37,-0.37,0.20,0.20,-0.20,-0.30,0.06,-0.57,-0.57,-0.58
468.71,-0.39,-0.39,0.18,0.18,-0.17,-0.27,0.08,-0.57,-0.56,-0.57
473.40,-0.41,-0.41,0.15,0.15,-0.15,-0.25,0.10,-0.56,-0.56,-0.56
478.13,-0.42,-0.42,0.13,0.12,-0.12,-0.22,0.12,-0.54,-0.55,-0.55
482.91,-0.44,-0.44,0.10,0.10,-0.10,-0.20,0.14,-0.54,-0.54,-0.54
487.74,-0.46,-0.46,0.07,0.07,-0.07,-0.17,0.15,-0.53,-0.53,-0.53
492.62,-0.48,-0.48,0.04,0.04,-0.04,-0.15,0.17,-0.52,-0.52,-0.52
497.55,-0.49,-0.50,0.02,0.02,-0.02,-0.12,0.18,-0.51,-0.51,-0.51
502.52,-0.51,-0.51,-0.01,-0.01,0.01,-0.09,0.20,-0.50,-0.50,-0.50
507.55,-0.53,-0.53,-0.05,-0.04,0.04,-0.07,0.21,-0.49,-0.49,-0.48
512.62,-0.54,-0.55,-0.07,-0.07,0.07,-0.04,0.22,-0.47,-0.48,-0.47
517.75,-0.56,-0.56,-0.10,-0.10,0.09,-0.01,0.23,-0.47,-0.47,-0.47
522.93,-0.58,-0.58,-0.12,-0.12,0.12,0.02,0.24,-0.46,-0.46,-0.46
528.16,-0.59,-0.59,-0.14,-0.15,0.15,0.04,0.25,-0.45,-0.45,-0.45
