frequency,raw
20.00,2.37
20.20,2.37
20.40,2.38
20.61,2.39
20.81,2.41
21.02,2.43
21.23,2.45
21.44,2.46
21.66,2.48
21.87,2.49
22.09,2.51
22.31,2.53
22.54,2.55
22.76,2.58
22.99,2.60
23.22,2.62
23.45,2.64
23.69,2.65
23.92,2.65
24.16,2.66
24.40,2.67
24.65,2.67
24.89,2.69
25.14,2.71
25.39,2.73
25.65,2.76
25.91,2.79
26.16,2.81
26.43,2.83
26.69,2.84
26.96,2.85
27.23,2.84
27.50,2.84
27.77,2.83
28.05,2.84
28.33,2.85
28.62,2.86
28.90,2.89
29.19,2.91
29.48,2.94
29.78,2.95
30.08,2.97
30.38,2.97
30.68,2.96
30.99,2.96
31.30,2.96
31.61,2.95
31.93,2.96
32.24,2.96
32.57,2.97
32.89,2.97
33.22,2.97
33.55,2.98
33.89,2.99
34.23,3.00
34.57,3.02
34.92,3.04
35.27,3.05
35.62,3.07
35.97,3.08
36.33,3.09
36.70,3.09
37.06,3.09
37.43,3.08
37.81,3.07
38.19,3.05
38.57,3.03
38.95,3.02
39.34,3.00
39.74,2.98
40.14,2.97
40.54,2.95
40.94,2.94
41.35,2.92
41.76,2.91
42.18,2.90
42.60,2.89
43.03,2.89
43.46,2.89
43.90,2.89
44.33,2.89
44.78,2.89
45.23,2.89
45.68,2.90
46.13,2.90
46.60,2.90
47.06,2.90
47.53,2.91
48.01,2.91
48.49,2.92
48.97,2.92
49.46,2.93
49.96,2.92
50.46,2.91
50.96,2.89
51.47,2.87
51.99,2.83
52.51,2.80
53.03,2.77
53.56,2.74
54.10,2.72
54.64,2.70
55.18,2.69
55.74,2.69
56.29,2.69
56.86,2.69
57.42,2.68
58.00,2.67
58.58,2.65
59.16,2.64
59.76,2.63
60.35,2.62
60.96,2.60
61.57,2.58
62.18,2.56
62.80,2.53
63.43,2.51
64.07,2.50
64.71,2.51
65.35,2.51
66.01,2.52
66.67,2.52
67.33,2.52
68.01,2.51
68.69,2.48
69.37,2.44
70.07,2.39
70.77,2.35
71.48,2.31
72.19,2.28
72.91,2.25
73.64,2.23
74.38,2.20
75.12,2.19
75.87,2.17
76.63,2.14
77.40,2.12
78.17,2.09
78.95,2.06
79.74,2.04
80.54,2.02
81.35,1.99
82.16,1.96
82.98,1.93
83.81,1.90
84.65,1.88
85.50,1.85
86.35,1.82
87.22,1.80
88.09,1.77
88.97,1.74
89.86,1.71
90.76,1.68
91.66,1.65
92.58,1.63
93.51,1.60
94.44,1.57
95.39,1.54
96.34,1.51
97.30,1.48
98.28,1.45
99.26,1.42
100.25,1.39
101.25,1.36
102.27,1.33
103.29,1.30
104.32,1.27
105.37,1.24
106.42,1.22
107.48,1.19
108.56,1.17
109.64,1.14
110.74,1.11
111.85,1.07
112.97,1.03
114.10,0.99
115.24,0.95
116.39,0.91
117.55,0.88
118.73,0.84
119.92,0.81
121.12,0.77
122.33,0.74
123.55,0.70
124.79,0.67
126.03,0.63
127.29,0.60
128.57,0.56
129.85,0.52
131.15,0.48
132.46,0.44
133.79,0.40
135.12,0.36
136.48,0.33
137.84,0.29
139.22,0.26
140.61,0.22
142.02,0.19
143.44,0.15
144.87,0.12
146.32,0.08
147.78,0.05
149.26,0.01
150.75,-0.03
152.26,-0.07
153.78,-0.11
155.32,-0.15
156.88,-0.18
158.44,-0.22
160.03,-0.26
161.63,-0.30
163.24,-0.34
164.88,-0.38
166.53,-0.42
168.19,-0.46
169.87,-0.50
171.57,-0.54
173.29,-0.58
175.02,-0.62
176.77,-0.67
178.54,-0.72
180.32,-0.77
182.13,-0.82
183.95,-0.86
185.79,-0.90
187.65,-0.95
189.52,-0.99
191.42,-1.02
193.33,-1.05
195.27,-1.08
197.22,-1.09
199.19,-1.11
201.18,-1.13
203.19,-1.15
205.23,-1.17
207.28,-1.19
209.35,-1.21
211.44,-1.24
213.56,-1.26
215.69,-1.30
217.85,-1.33
220.03,-1.36
222.23,-1.39
224.45,-1.42
226.70,-1.45
228.96,-1.48
231.25,-1.51
233.57,-1.54
235.90,-1.58
238.26,-1.61
240.64,-1.64
243.05,-1.67
245.48,-1.70
247.93,-1.73
250.41,-1.76
252.92,-1.80
255.45,-1.83
258.00,-1.86
260.58,-1.89
263.19,-1.92
265.82,-1.95
268.48,-1.98
271.16,-2.01
273.87,-2.04
276.61,-2.07
279.38,-2.10
282.17,-2.13
284.99,-2.16
287.84,-2.19
290.72,-2.22
293.63,-2.25
296.57,-2.27
299.53,-2.30
302.53,-2.32
305.55,-2.35
308.61,-2.37
311.69,-2.39
314.81,-2.42
317.96,-2.44
321.14,-2.46
324.35,-2.47
327.59,-2.49
330.87,-2.51
334.18,-2.52
337.52,-2.54
340.90,-2.55
344.30,-2.56
347.75,-2.58
351.23,-2.59
354.74,-2.60
358.28,-2.62
361.87,-2.63
365.49,-2.65
369.14,-2.66
372.83,-2.67
376.56,-2.69
380.33,-2.70
384.13,-2.71
387.97,-2.72
391.85,-2.73
395.77,-2.74
399.73,-2.75
403.72,-2.75
407.76,-2.76
411.84,-2.77
415.96,-2.78
420.12,-2.78
424.32,-2.79
428.56,-2.79
432.85,-2.79
437.18,-2.80
441.55,-2.80
445.96,-2.80
450.42,-2.80
454.93,-2.80
459.48,-2.79
464.07,-2.79
468.71,-2.79
473.40,-2.79
478.13,-2.78
482.91,-2.78
487.74,-2.78
492.62,-2.77
497.55,-2.77
502.52,-2.76
507.55,-2.76
512.62,-2.75
517.75,-2.74
522.93,-2.74
528.16,-2.73
533.44,-2.72
538.77,-2.71
544.16,-2.70
549.60,-2.69
555.10,-2.68
560.65,-2.67
566.25,-2.66
571.92,-2.65
577.64,-2.64
583.41,-2.62
589.25,-2.61
595.14,-2.60
601.09,-2.58
607.10,-2.57
613.17,-2.55
619.30,-2.53
625.50,-2.51
631.75,-2.49
638.07,-2.47
644.45,-2.45
650.89,-2.42
657.40,-2.40
663.98,-2.38
670.62,-2.35
677.32,-2.32
684.10,-2.30
690.94,-2.27
697.85,-2.24
704.83,-2.21
711.87,-2.17
718.99,-2.14
726.18,-2.11
733.44,-2.07
740.78,-2.04
748.19,-2.00
755.67,-1.96
763.23,-1.92
770.86,-1.87
778.57,-1.83
786.35,-1.79
794.22,-1.74
802.16,-1.69
810.18,-1.64
818.28,-1.58
826.46,-1.53
834.73,-1.47
843.08,-1.41
851.51,-1.35
860.02,-1.28
868.62,-1.21
877.31,-1.15
886.08,-1.08
894.94,-1.00
903.89,-0.93
912.93,-0.85
922.06,-0.76
931.28,-0.68
940.59,-0.59
950.00,-0.50
959.50,-0.41
969.09,-0.31
978.78,-0.22
988.57,-0.12
998.46,-0.02
1008.44,0.09
1018.53,0.19
1028.71,0.30
1039.00,0.41
1049.39,0.53
1059.88,0.64
1070.48,0.76
1081.19,0.88
1092.00,1.00
1102.92,1.12
1113.95,1.24
1125.09,1.36
1136.34,1.49
1147.70,1.61
1159.18,1.74
1170.77,1.86
1182.48,1.99
1194.30,2.12
1206.25,2.25
1218.31,2.38
1230.49,2.52
1242.80,2.65
1255.22,2.79
1267.78,2.93
1280.45,3.06
1293.26,3.20
1306.19,3.34
1319.25,3.48
1332.45,3.63
1345.77,3.77
1359.23,3.91
1372.82,4.05
1386.55,4.19
1400.41,4.34
1414.42,4.48
1428.56,4.62
1442.85,4.76
1457.28,4.90
1471.85,5.04
1486.57,5.17
1501.43,5.31
1516.45,5.44
1531.61,5.56
1546.93,5.69
1562.40,5.80
1578.02,5.92
1593.80,6.03
1609.74,6.14
1625.84,6.24
1642.10,6.34
1658.52,6.43
1675.10,6.52
1691.85,6.59
1708.77,6.66
1725.86,6.72
1743.12,6.76
1760.55,6.80
1778.15,6.84
1795.94,6.85
1813.90,6.86
1832.03,6.85
1850.36,6.84
1868.86,6.80
1887.55,6.76
1906.42,6.70
1925.49,6.63
1944.74,6.54
1964.19,6.44
1983.83,6.34
2003.67,6.22
2023.71,6.09
2043.94,5.95
2064.38,5.81
2085.03,5.65
2105.88,5.49
2126.94,5.32
2148.20,5.15
2169.69,4.96
2191.38,4.78
2213.30,4.59
2235.43,4.39
2257.78,4.20
2280.36,4.00
2303.17,3.81
2326.20,3.61
2349.46,3.42
2372.95,3.23
2396.68,3.05
2420.65,2.86
2444.86,2.68
2469.31,2.50
2494.00,2.32
2518.94,2.15
2544.13,1.98
2569.57,1.82
2595.27,1.67
2621.22,1.52
2647.43,1.38
2673.90,1.26
2700.64,1.15
2727.65,1.04
2754.93,0.94
2782.48,0.83
2810.30,0.73
2838.40,0.62
2866.79,0.51
2895.46,0.40
2924.41,0.28
2953.65,0.17
2983.19,0.05
3013.02,-0.05
3043.15,-0.16
3073.58,-0.25
3104.32,-0.34
3135.36,-0.42
3166.72,-0.51
3198.38,-0.59
3230.37,-0.68
3262.67,-0.77
3295.30,-0.85
3328.25,-0.93
3361.53,-1.01
3395.15,-1.08
3429.10,-1.14
3463.39,-1.20
3498.03,-1.26
3533.01,-1.33
3568.34,-1.40
3604.02,-1.47
3640.06,-1.54
3676.46,-1.60
3713.22,-1.64
3750.36,-1.68
3787.86,-1.67
3825.74,-1.67
3864.00,-1.64
3902.64,-1.59
3941.66,-1.54
3981.08,-1.47
4020.89,-1.38
4061.10,-1.29
4101.71,-1.18
4142.73,-1.06
4184.15,-0.93
4226.00,-0.80
4268.26,-0.66
4310.94,-0.52
4354.05,-0.38
4397.59,-0.24
4441.56,-0.12
4485.98,0.00
4530.84,0.12
4576.15,0.23
4621.91,0.33
4668.13,0.44
4714.81,0.55
4761.96,0.65
4809.58,0.75
4857.67,0.83
4906.25,0.90
4955.31,0.96
5004.87,1.02
5054.91,1.08
5105.46,1.15
5156.52,1.23
5208.08,1.32
5260.16,1.40
5312.77,1.47
5365.89,1.51
5419.55,1.54
5473.75,1.53
5528.49,1.51
5583.77,1.46
5639.61,1.39
5696.00,1.30
5752.96,1.18
5810.49,1.06
5868.60,0.91
5927.28,0.76
5986.56,0.60
6046.42,0.44
6106.89,0.30
6167.96,0.17
6229.64,0.06
6291.93,-0.03
6354.85,-0.11
6418.40,-0.18
6482.58,-0.25
6547.41,-0.30
6612.88,-0.34
6679.01,-0.36
6745.80,-0.34
6813.26,-0.31
6881.39,-0.24
6950.21,-0.14
7019.71,-0.01
7089.91,0.18
7160.81,0.47
7232.41,0.82
7304.74,1.23
7377.79,1.69
7451.56,2.13
7526.08,2.56
7601.34,2.96
7677.35,3.31
7754.13,3.62
7831.67,3.76
7909.98,3.79
7989.08,3.63
8068.98,3.18
8149.67,2.56
8231.16,1.74
8313.47,0.76
8396.61,-0.28
8480.57,-1.33
8565.38,-2.35
8651.03,-3.32
8737.54,-4.26
8824.92,-5.16
8913.17,-6.00
9002.30,-6.81
9092.32,-7.42
9183.25,-7.79
9275.08,-7.96
9367.83,-7.86
9461.51,-7.57
9556.12,-7.17
9651.68,-6.66
9748.20,-6.07
9845.68,-5.33
9944.14,-4.45
10043.58,-3.40
10144.02,-2.24
10245.46,-0.99
10347.91,0.23
10451.39,1.35
10555.91,2.21
10661.46,2.81
10768.08,3.15
10875.76,3.13
10984.52,2.82
11094.36,2.36
11205.31,1.72
11317.36,0.87
11430.53,-0.04
11544.84,-1.08
11660.29,-2.17
11776.89,-3.24
11894.66,-4.08
12013.60,-4.88
12133.74,-5.50
12255.08,-5.92
12377.63,-6.23
12501.41,-6.37
12626.42,-6.28
12752.68,-6.10
12880.21,-5.97
13009.01,-5.88
13139.10,-5.79
13270.49,-5.81
13403.20,-5.82
13537.23,-5.70
13672.60,-5.49
13809.33,-5.19
13947.42,-4.78
14086.90,-4.39
14227.77,-4.00
14370.04,-3.69
14513.74,-3.47
14658.88,-3.28
14805.47,-3.04
14953.52,-2.71
15103.06,-2.38
15254.09,-2.04
15406.63,-1.87
15560.70,-1.76
15716.30,-1.74
15873.47,-1.70
16032.20,-1.60
16192.52,-1.31
16354.45,-0.84
16517.99,-0.28
16683.17,0.39
16850.01,1.01
17018.51,1.59
17188.69,2.02
17360.58,2.30
17534.18,2.44
17709.53,2.38
17886.62,2.15
18065.49,1.82
18246.14,1.43
18428.60,1.02
18612.89,0.60
18799.02,0.15
18987.01,-0.36
19176.88,-1.00
19368.65,-1.79
19562.33,-2.75
19757.96,-3.84
19955.54,-4.93
