frequency,raw
20.00,3.10
20.20,3.14
20.40,3.18
20.61,3.22
20.81,3.26
21.02,3.30
21.23,3.34
21.44,3.39
21.66,3.44
21.87,3.49
22.09,3.52
22.31,3.54
22.54,3.54
22.76,3.53
22.99,3.51
23.22,3.49
23.45,3.48
23.69,3.50
23.92,3.54
24.16,3.61
24.40,3.71
24.65,3.82
24.89,3.93
25.14,4.03
25.39,4.13
25.65,4.20
25.91,4.26
26.16,4.30
26.43,4.34
26.69,4.36
26.96,4.39
27.23,4.41
27.50,4.42
27.77,4.44
28.05,4.45
28.33,4.47
28.62,4.49
28.90,4.51
29.19,4.53
29.48,4.55
29.78,4.56
30.08,4.58
30.38,4.59
30.68,4.60
30.99,4.61
31.30,4.63
31.61,4.65
31.93,4.68
32.24,4.70
32.57,4.72
32.89,4.75
33.22,4.78
33.55,4.81
33.89,4.84
34.23,4.87
34.57,4.90
34.92,4.92
35.27,4.94
35.62,4.96
35.97,4.98
36.33,4.99
36.70,5.00
37.06,5.01
37.43,5.03
37.81,5.04
38.19,5.05
38.57,5.06
38.95,5.07
39.34,5.08
39.74,5.09
40.14,5.10
40.54,5.10
40.94,5.10
41.35,5.11
41.76,5.12
42.18,5.15
42.60,5.17
43.03,5.19
43.46,5.20
43.90,5.21
44.33,5.21
44.78,5.20
45.23,5.20
45.68,5.21
46.13,5.21
46.60,5.21
47.06,5.20
47.53,5.19
48.01,5.18
48.49,5.18
48.97,5.18
49.46,5.19
49.96,5.21
50.46,5.22
50.96,5.24
51.47,5.25
51.99,5.25
52.51,5.25
53.03,5.25
53.56,5.25
54.10,5.26
54.64,5.27
55.18,5.27
55.74,5.28
56.29,5.28
56.86,5.27
57.42,5.27
58.00,5.26
58.58,5.24
59.16,5.22
59.76,5.20
60.35,5.19
60.96,5.18
61.57,5.17
62.18,5.16
62.80,5.16
63.43,5.17
64.07,5.18
64.71,5.19
65.35,5.18
66.01,5.17
66.67,5.16
67.33,5.16
68.01,5.17
68.69,5.17
69.37,5.16
70.07,5.15
70.77,5.12
71.48,5.11
72.19,5.10
72.91,5.11
73.64,5.10
74.38,5.09
75.12,5.06
75.87,5.03
76.63,5.02
77.40,5.02
78.17,5.04
78.95,5.06
79.74,5.07
80.54,5.07
81.35,5.05
82.16,5.02
82.98,4.99
83.81,4.95
84.65,4.93
85.50,4.91
86.35,4.90
87.22,4.91
88.09,4.92
88.97,4.92
89.86,4.92
90.76,4.92
91.66,4.92
92.58,4.91
93.51,4.90
94.44,4.89
95.39,4.87
96.34,4.86
97.30,4.85
98.28,4.84
99.26,4.83
100.25,4.82
101.25,4.81
102.27,4.79
103.29,4.77
104.32,4.75
105.37,4.73
106.42,4.71
107.48,4.69
108.56,4.68
109.64,4.67
110.74,4.66
111.85,4.65
112.97,4.64
114.10,4.63
115.24,4.62
116.39,4.60
117.55,4.58
118.73,4.56
119.92,4.54
121.12,4.52
122.33,4.50
123.55,4.49
124.79,4.47
126.03,4.46
127.29,4.45
128.57,4.43
129.85,4.42
131.15,4.40
132.46,4.39
133.79,4.37
135.12,4.35
136.48,4.33
137.84,4.31
139.22,4.30
140.61,4.28
142.02,4.26
143.44,4.24
144.87,4.22
146.32,4.20
147.78,4.18
149.26,4.16
150.75,4.14
152.26,4.12
153.78,4.10
155.32,4.08
156.88,4.06
158.44,4.04
160.03,4.02
161.63,4.00
163.24,3.98
164.88,3.95
166.53,3.93
168.19,3.91
169.87,3.89
171.57,3.86
173.29,3.84
175.02,3.82
176.77,3.79
178.54,3.77
180.32,3.75
182.13,3.72
183.95,3.70
185.79,3.68
187.65,3.65
189.52,3.63
191.42,3.60
193.33,3.57
195.27,3.54
197.22,3.51
199.19,3.48
201.18,3.46
203.19,3.43
205.23,3.40
207.28,3.38
209.35,3.35
211.44,3.33
213.56,3.31
215.69,3.28
217.85,3.26
220.03,3.24
222.23,3.21
224.45,3.19
226.70,3.16
228.96,3.14
231.25,3.11
233.57,3.08
235.90,3.05
238.26,3.02
240.64,2.98
243.05,2.95
245.48,2.92
247.93,2.89
250.41,2.86
252.92,2.82
255.45,2.79
258.00,2.76
260.58,2.72
263.19,2.69
265.82,2.66
268.48,2.62
271.16,2.59
273.87,2.56
276.61,2.52
279.38,2.49
282.17,2.45
284.99,2.42
287.84,2.38
290.72,2.35
293.63,2.31
296.57,2.28
299.53,2.25
302.53,2.21
305.55,2.18
308.61,2.14
311.69,2.11
314.81,2.07
317.96,2.03
321.14,2.00
324.35,1.96
327.59,1.93
330.87,1.89
334.18,1.85
337.52,1.82
340.90,1.78
344.30,1.74
347.75,1.70
351.23,1.67
354.74,1.63
358.28,1.59
361.87,1.55
365.49,1.52
369.14,1.48
372.83,1.44
376.56,1.40
380.33,1.37
384.13,1.33
387.97,1.29
391.85,1.25
395.77,1.21
399.73,1.18
403.72,1.14
407.76,1.10
411.84,1.07
415.96,1.03
420.12,0.99
424.32,0.95
428.56,0.92
432.85,0.88
437.18,0.84
441.55,0.81
445.96,0.77
450.42,0.73
454.93,0.70
459.48,0.66
464.07,0.63
468.71,0.59
473.40,0.56
478.13,0.52
482.91,0.49
487.74,0.45
492.62,0.42
497.55,0.38
502.52,0.35
507.55,0.31
512.62,0.28
517.75,0.25
522.93,0.22
528.16,0.18
533.44,0.15
538.77,0.12
544.16,0.09
549.60,0.06
555.10,0.03
560.65,-0.00
566.25,-0.04
571.92,-0.07
577.64,-0.10
583.41,-0.13
589.25,-0.16
595.14,-0.19
601.09,-0.22
607.10,-0.25
613.17,-0.27
619.30,-0.30
625.50,-0.33
631.75,-0.35
638.07,-0.38
644.45,-0.40
650.89,-0.43
657.40,-0.45
663.98,-0.48
670.62,-0.50
677.32,-0.52
684.10,-0.54
690.94,-0.57
697.85,-0.59
704.83,-0.61
711.87,-0.63
718.99,-0.65
726.18,-0.66
733.44,-0.68
740.78,-0.69
748.19,-0.69
755.67,-0.69
763.23,-0.69
770.86,-0.69
778.57,-0.69
786.35,-0.69
794.22,-0.70
802.16,-0.71
810.18,-0.73
818.28,-0.75
826.46,-0.77
834.73,-0.79
843.08,-0.79
851.51,-0.79
860.02,-0.78
868.62,-0.75
877.31,-0.72
886.08,-0.69
894.94,-0.64
903.89,-0.60
912.93,-0.55
922.06,-0.50
931.28,-0.45
940.59,-0.39
950.00,-0.33
959.50,-0.27
969.09,-0.21
978.78,-0.15
988.57,-0.08
998.46,-0.01
1008.44,0.06
1018.53,0.13
1028.71,0.21
1039.00,0.29
1049.39,0.37
1059.88,0.45
1070.48,0.53
1081.19,0.61
1092.00,0.70
1102.92,0.78
1113.95,0.87
1125.09,0.96
1136.34,1.04
1147.70,1.13
1159.18,1.22
1170.77,1.30
1182.48,1.39
1194.30,1.48
1206.25,1.56
1218.31,1.65
1230.49,1.73
1242.80,1.81
1255.22,1.90
1267.78,1.98
1280.45,2.06
1293.26,2.14
1306.19,2.22
1319.25,2.30
1332.45,2.38
1345.77,2.46
1359.23,2.53
1372.82,2.61
1386.55,2.69
1400.41,2.77
1414.42,2.86
1428.56,2.94
1442.85,3.03
1457.28,3.12
1471.85,3.22
1486.57,3.33
1501.43,3.44
1516.45,3.56
1531.61,3.69
1546.93,3.83
1562.40,3.96
1578.02,4.10
1593.80,4.24
1609.74,4.38
1625.84,4.53
1642.10,4.67
1658.52,4.82
1675.10,4.98
1691.85,5.13
1708.77,5.29
1725.86,5.45
1743.12,5.60
1760.55,5.75
1778.15,5.89
1795.94,6.02
1813.90,6.13
1832.03,6.24
1850.36,6.34
1868.86,6.41
1887.55,6.48
1906.42,6.53
1925.49,6.57
1944.74,6.60
1964.19,6.62
1983.83,6.63
2003.67,6.62
2023.71,6.61
2043.94,6.59
2064.38,6.56
2085.03,6.52
2105.88,6.48
2126.94,6.42
2148.20,6.36
2169.69,6.30
2191.38,6.22
2213.30,6.14
2235.43,6.06
2257.78,5.96
2280.36,5.87
2303.17,5.76
2326.20,5.65
2349.46,5.53
2372.95,5.41
2396.68,5.28
2420.65,5.15
2444.86,5.01
2469.31,4.87
2494.00,4.72
2518.94,4.57
2544.13,4.42
2569.57,4.27
2595.27,4.12
2621.22,3.98
2647.43,3.84
2673.90,3.72
2700.64,3.60
2727.65,3.49
2754.93,3.39
2782.48,3.31
2810.30,3.25
2838.40,3.19
2866.79,3.15
2895.46,3.11
2924.41,3.08
2953.65,3.03
2983.19,2.98
3013.02,2.92
3043.15,2.86
3073.58,2.78
3104.32,2.70
3135.36,2.63
3166.72,2.55
3198.38,2.48
3230.37,2.42
3262.67,2.36
3295.30,2.31
3328.25,2.27
3361.53,2.24
3395.15,2.21
3429.10,2.19
3463.39,2.18
3498.03,2.17
3533.01,2.16
3568.34,2.15
3604.02,2.15
3640.06,2.16
3676.46,2.17
3713.22,2.18
3750.36,2.21
3787.86,2.24
3825.74,2.28
3864.00,2.33
3902.64,2.39
3941.66,2.46
3981.08,2.53
4020.89,2.62
4061.10,2.72
4101.71,2.83
4142.73,2.95
4184.15,3.08
4226.00,3.23
4268.26,3.39
4310.94,3.56
4354.05,3.75
4397.59,3.94
4441.56,4.15
4485.98,4.37
4530.84,4.60
4576.15,4.84
4621.91,5.08
4668.13,5.32
4714.81,5.56
4761.96,5.79
4809.58,6.01
4857.67,6.21
4906.25,6.39
4955.31,6.54
5004.87,6.66
5054.91,6.73
5105.46,6.76
5156.52,6.76
5208.08,6.71
5260.16,6.61
5312.77,6.49
5365.89,6.32
5419.55,6.14
5473.75,5.93
5528.49,5.72
5583.77,5.50
5639.61,5.29
5696.00,5.07
5752.96,4.88
5810.49,4.69
5868.60,4.52
5927.28,4.36
5986.56,4.21
6046.42,4.08
6106.89,3.95
6167.96,3.83
6229.64,3.72
6291.93,3.61
6354.85,3.50
6418.40,3.39
6482.58,3.29
6547.41,3.20
6612.88,3.11
6679.01,3.04
6745.80,2.97
6813.26,2.91
6881.39,2.88
6950.21,2.87
7019.71,2.89
7089.91,2.94
7160.81,3.05
7232.41,3.19
7304.74,3.37
7377.79,3.63
7451.56,3.94
7526.08,4.32
7601.34,4.76
7677.35,5.27
7754.13,5.81
7831.67,6.40
7909.98,6.96
7989.08,7.49
8068.98,7.88
8149.67,8.14
8231.16,8.21
8313.47,8.01
8396.61,7.65
8480.57,7.04
8565.38,6.23
8651.03,5.31
8737.54,4.29
8824.92,3.20
8913.17,2.11
9002.30,1.01
9092.32,-0.03
9183.25,-1.02
9275.08,-1.95
9367.83,-2.80
9461.51,-3.55
9556.12,-4.24
9651.68,-4.87
9748.20,-5.44
9845.68,-5.93
9944.14,-6.38
10043.58,-6.76
10144.02,-7.11
10245.46,-7.36
10347.91,-7.58
10451.39,-7.75
10555.91,-7.86
10661.46,-7.94
10768.08,-8.00
10875.76,-8.03
10984.52,-8.06
11094.36,-8.08
11205.31,-8.10
11317.36,-8.11
11430.53,-8.10
11544.84,-8.04
11660.29,-7.94
11776.89,-7.80
11894.66,-7.51
12013.60,-7.19
12133.74,-6.75
12255.08,-6.16
12377.63,-5.45
12501.41,-4.62
12626.42,-3.63
12752.68,-2.56
12880.21,-1.50
13009.01,-0.46
13139.10,0.58
13270.49,1.27
13403.20,1.80
13537.23,1.83
13672.60,1.59
13809.33,1.10
13947.42,0.25
14086.90,-0.70
14227.77,-1.73
14370.04,-2.73
14513.74,-3.66
14658.88,-4.41
14805.47,-5.04
14953.52,-5.48
15103.06,-5.70
15254.09,-5.81
15406.63,-5.60
15560.70,-5.28
15716.30,-4.80
15873.47,-4.26
16032.20,-3.72
16192.52,-3.31
16354.45,-3.15
16517.99,-3.18
16683.17,-3.64
16850.01,-4.39
17018.51,-5.35
17188.69,-6.61
17360.58,-7.96
17534.18,-9.37
17709.53,-10.77
17886.62,-12.09
18065.49,-13.30
18246.14,-14.39
18428.60,-15.28
18612.89,-16.03
18799.02,-16.67
18987.01,-17.20
19176.88,-17.64
19368.65,-18.06
19562.33,-18.46
19757.96,-18.84
19955.54,-19.22
