frequency,raw
20.00,12.36
20.20,12.36
20.40,12.35
20.61,12.34
20.81,12.32
21.02,12.31
21.23,12.29
21.44,12.28
21.66,12.27
21.87,12.26
22.09,12.25
22.31,12.25
22.54,12.25
22.76,12.24
22.99,12.24
23.22,12.24
23.45,12.24
23.69,12.24
23.92,12.25
24.16,12.25
24.40,12.24
24.65,12.23
24.89,12.22
25.14,12.19
25.39,12.16
25.65,12.11
25.91,12.06
26.16,12.01
26.43,11.96
26.69,11.92
26.96,11.89
27.23,11.87
27.50,11.87
27.77,11.86
28.05,11.86
28.33,11.86
28.62,11.85
28.90,11.84
29.19,11.83
29.48,11.81
29.78,11.80
30.08,11.79
30.38,11.78
30.68,11.77
30.99,11.76
31.30,11.74
31.61,11.71
31.93,11.68
32.24,11.64
32.57,11.60
32.89,11.56
33.22,11.53
33.55,11.51
33.89,11.49
34.23,11.48
34.57,11.46
34.92,11.44
35.27,11.43
35.62,11.41
35.97,11.39
36.33,11.37
36.70,11.36
37.06,11.34
37.43,11.31
37.81,11.29
38.19,11.26
38.57,11.23
38.95,11.21
39.34,11.18
39.74,11.16
40.14,11.13
40.54,11.10
40.94,11.07
41.35,11.04
41.76,11.00
42.18,10.97
42.60,10.94
43.03,10.92
43.46,10.89
43.90,10.86
44.33,10.83
44.78,10.81
45.23,10.78
45.68,10.75
46.13,10.72
46.60,10.69
47.06,10.65
47.53,10.62
48.01,10.59
48.49,10.56
48.97,10.53
49.46,10.49
49.96,10.46
50.46,10.43
50.96,10.40
51.47,10.37
51.99,10.34
52.51,10.31
53.03,10.27
53.56,10.24
54.10,10.21
54.64,10.17
55.18,10.14
55.74,10.11
56.29,10.07
56.86,10.04
57.42,10.00
58.00,9.96
58.58,9.92
59.16,9.88
59.76,9.84
60.35,9.79
60.96,9.75
61.57,9.71
62.18,9.67
62.80,9.64
63.43,9.61
64.07,9.58
64.71,9.54
65.35,9.50
66.01,9.46
66.67,9.42
67.33,9.38
68.01,9.34
68.69,9.29
69.37,9.25
70.07,9.20
70.77,9.16
71.48,9.11
72.19,9.07
72.91,9.02
73.64,8.98
74.38,8.93
75.12,8.89
75.87,8.84
76.63,8.80
77.40,8.75
78.17,8.70
78.95,8.65
79.74,8.60
80.54,8.56
81.35,8.51
82.16,8.46
82.98,8.41
83.81,8.36
84.65,8.31
85.50,8.26
86.35,8.21
87.22,8.15
88.09,8.08
88.97,8.02
89.86,7.96
90.76,7.92
91.66,7.89
92.58,7.86
93.51,7.82
94.44,7.78
95.39,7.73
96.34,7.68
97.30,7.63
98.28,7.58
99.26,7.53
100.25,7.48
101.25,7.43
102.27,7.38
103.29,7.33
104.32,7.28
105.37,7.23
106.42,7.18
107.48,7.12
108.56,7.07
109.64,7.02
110.74,6.96
111.85,6.91
112.97,6.85
114.10,6.80
115.24,6.74
116.39,6.68
117.55,6.63
118.73,6.57
119.92,6.52
121.12,6.46
122.33,6.41
123.55,6.35
124.79,6.30
126.03,6.24
127.29,6.18
128.57,6.13
129.85,6.08
131.15,6.02
132.46,5.97
133.79,5.92
135.12,5.86
136.48,5.81
137.84,5.75
139.22,5.70
140.61,5.64
142.02,5.59
143.44,5.54
144.87,5.49
146.32,5.44
147.78,5.39
149.26,5.35
150.75,5.31
152.26,5.27
153.78,5.24
155.32,5.22
156.88,5.19
158.44,5.17
160.03,5.15
161.63,5.12
163.24,5.10
164.88,5.10
166.53,5.11
168.19,5.12
169.87,5.13
171.57,5.10
173.29,5.05
175.02,4.99
176.77,4.90
178.54,4.81
180.32,4.72
182.13,4.63
183.95,4.56
185.79,4.50
187.65,4.45
189.52,4.40
191.42,4.36
193.33,4.31
195.27,4.27
197.22,4.22
199.19,4.16
201.18,4.10
203.19,4.03
205.23,3.95
207.28,3.87
209.35,3.79
211.44,3.70
213.56,3.61
215.69,3.52
217.85,3.43
220.03,3.34
222.23,3.26
224.45,3.17
226.70,3.09
228.96,3.01
231.25,2.93
233.57,2.86
235.90,2.79
238.26,2.72
240.64,2.65
243.05,2.59
245.48,2.52
247.93,2.46
250.41,2.39
252.92,2.33
255.45,2.27
258.00,2.20
260.58,2.14
263.19,2.08
265.82,2.01
268.48,1.95
271.16,1.89
273.87,1.82
276.61,1.75
279.38,1.69
282.17,1.61
284.99,1.54
287.84,1.46
290.72,1.38
293.63,1.29
296.57,1.20
299.53,1.09
302.53,0.97
305.55,0.83
308.61,0.68
311.69,0.52
314.81,0.36
317.96,0.21
321.14,0.08
324.35,-0.02
327.59,-0.06
330.87,-0.08
334.18,-0.07
337.52,-0.04
340.90,-0.02
344.30,0.01
347.75,0.01
351.23,0.01
354.74,-0.00
358.28,-0.03
361.87,-0.07
365.49,-0.13
369.14,-0.19
372.83,-0.27
376.56,-0.37
380.33,-0.47
384.13,-0.59
387.97,-0.74
391.85,-0.92
395.77,-1.11
399.73,-1.36
403.72,-1.66
407.76,-1.99
411.84,-2.32
415.96,-2.52
420.12,-2.55
424.32,-2.43
428.56,-2.14
432.85,-1.73
437.18,-1.19
441.55,-0.50
445.96,0.12
450.42,0.63
454.93,0.92
459.48,0.99
464.07,1.01
468.71,0.95
473.40,0.88
478.13,0.80
482.91,0.73
487.74,0.63
492.62,0.52
497.55,0.41
502.52,0.28
507.55,0.16
512.62,0.04
517.75,-0.08
522.93,-0.18
528.16,-0.28
533.44,-0.38
538.77,-0.46
544.16,-0.54
549.60,-0.61
555.10,-0.68
560.65,-0.74
566.25,-0.79
571.92,-0.84
577.64,-0.88
583.41,-0.92
589.25,-0.96
595.14,-0.98
601.09,-1.01
607.10,-1.03
613.17,-1.05
619.30,-1.06
625.50,-1.08
631.75,-1.11
638.07,-1.14
644.45,-1.18
650.89,-1.21
657.40,-1.23
663.98,-1.25
670.62,-1.26
677.32,-1.27
684.10,-1.28
690.94,-1.28
697.85,-1.28
704.83,-1.28
711.87,-1.28
718.99,-1.28
726.18,-1.27
733.44,-1.27
740.78,-1.26
748.19,-1.25
755.67,-1.24
763.23,-1.23
770.86,-1.22
778.57,-1.20
786.35,-1.18
794.22,-1.16
802.16,-1.14
810.18,-1.11
818.28,-1.08
826.46,-1.05
834.73,-1.02
843.08,-0.98
851.51,-0.94
860.02,-0.90
868.62,-0.86
877.31,-0.82
886.08,-0.77
894.94,-0.72
903.89,-0.67
912.93,-0.62
922.06,-0.56
931.28,-0.50
940.59,-0.44
950.00,-0.37
959.50,-0.30
969.09,-0.23
978.78,-0.16
988.57,-0.09
998.46,-0.01
1008.44,0.07
1018.53,0.15
1028.71,0.24
1039.00,0.34
1049.39,0.44
1059.88,0.54
1070.48,0.65
1081.19,0.75
1092.00,0.84
1102.92,0.92
1113.95,0.99
1125.09,1.06
1136.34,1.13
1147.70,1.20
1159.18,1.28
1170.77,1.36
1182.48,1.44
1194.30,1.52
1206.25,1.61
1218.31,1.70
1230.49,1.79
1242.80,1.88
1255.22,1.97
1267.78,2.06
1280.45,2.16
1293.26,2.25
1306.19,2.35
1319.25,2.44
1332.45,2.54
1345.77,2.64
1359.23,2.74
1372.82,2.84
1386.55,2.94
1400.41,3.04
1414.42,3.15
1428.56,3.25
1442.85,3.36
1457.28,3.47
1471.85,3.59
1486.57,3.71
1501.43,3.84
1516.45,3.98
1531.61,4.12
1546.93,4.28
1562.40,4.44
1578.02,4.60
1593.80,4.76
1609.74,4.91
1625.84,5.06
1642.10,5.20
1658.52,5.33
1675.10,5.46
1691.85,5.58
1708.77,5.70
1725.86,5.82
1743.12,5.94
1760.55,6.07
1778.15,6.19
1795.94,6.31
1813.90,6.44
1832.03,6.56
1850.36,6.68
1868.86,6.79
1887.55,6.91
1906.42,7.01
1925.49,7.12
1944.74,7.21
1964.19,7.29
1983.83,7.37
2003.67,7.45
2023.71,7.51
2043.94,7.57
2064.38,7.62
2085.03,7.67
2105.88,7.70
2126.94,7.73
2148.20,7.75
2169.69,7.77
2191.38,7.78
2213.30,7.78
2235.43,7.78
2257.78,7.78
2280.36,7.78
2303.17,7.77
2326.20,7.76
2349.46,7.73
2372.95,7.70
2396.68,7.66
2420.65,7.61
2444.86,7.55
2469.31,7.49
2494.00,7.43
2518.94,7.38
2544.13,7.33
2569.57,7.29
2595.27,7.26
2621.22,7.22
2647.43,7.19
2673.90,7.15
2700.64,7.11
2727.65,7.04
2754.93,6.96
2782.48,6.85
2810.30,6.72
2838.40,6.57
2866.79,6.38
2895.46,6.17
2924.41,5.93
2953.65,5.67
2983.19,5.39
3013.02,5.11
3043.15,4.83
3073.58,4.58
3104.32,4.36
3135.36,4.17
3166.72,4.02
3198.38,3.90
3230.37,3.82
3262.67,3.75
3295.30,3.70
3328.25,3.67
3361.53,3.64
3395.15,3.62
3429.10,3.59
3463.39,3.56
3498.03,3.52
3533.01,3.47
3568.34,3.41
3604.02,3.35
3640.06,3.27
3676.46,3.19
3713.22,3.11
3750.36,3.04
3787.86,3.01
3825.74,2.98
3864.00,3.00
3902.64,3.08
3941.66,3.16
3981.08,3.30
4020.89,3.46
4061.10,3.65
4101.71,3.87
4142.73,4.08
4184.15,4.31
4226.00,4.52
4268.26,4.72
4310.94,4.91
4354.05,5.05
4397.59,5.16
4441.56,5.25
4485.98,5.28
4530.84,5.26
4576.15,5.20
4621.91,5.11
4668.13,4.95
4714.81,4.74
4761.96,4.51
4809.58,4.24
4857.67,3.95
4906.25,3.67
4955.31,3.40
5004.87,3.17
5054.91,3.02
5105.46,2.92
5156.52,2.91
5208.08,3.02
5260.16,3.23
5312.77,3.50
5365.89,3.87
5419.55,4.29
5473.75,4.74
5528.49,5.20
5583.77,5.63
5639.61,6.02
5696.00,6.38
5752.96,6.64
5810.49,6.86
5868.60,6.97
5927.28,7.03
5986.56,7.02
6046.42,6.94
6106.89,6.83
6167.96,6.69
6229.64,6.54
6291.93,6.39
6354.85,6.26
6418.40,6.15
6482.58,6.06
6547.41,6.02
6612.88,5.99
6679.01,6.02
6745.80,6.10
6813.26,6.22
6881.39,6.38
6950.21,6.59
7019.71,6.83
7089.91,7.09
7160.81,7.37
7232.41,7.65
7304.74,7.91
7377.79,8.14
7451.56,8.32
7526.08,8.44
7601.34,8.49
7677.35,8.45
7754.13,8.37
7831.67,8.16
7909.98,7.92
7989.08,7.61
8068.98,7.25
8149.67,6.87
8231.16,6.49
8313.47,6.10
8396.61,5.73
8480.57,5.39
8565.38,5.09
8651.03,4.82
8737.54,4.58
8824.92,4.40
8913.17,4.24
9002.30,4.10
9092.32,3.96
9183.25,3.79
9275.08,3.60
9367.83,3.34
9461.51,2.99
9556.12,2.56
9651.68,2.05
9748.20,1.46
9845.68,0.78
9944.14,0.06
10043.58,-0.69
10144.02,-1.46
10245.46,-2.21
10347.91,-2.93
10451.39,-3.60
10555.91,-4.17
10661.46,-4.67
10768.08,-5.08
10875.76,-5.37
10984.52,-5.55
11094.36,-5.68
11205.31,-5.75
11317.36,-5.77
11430.53,-5.79
11544.84,-5.83
11660.29,-5.88
11776.89,-5.96
11894.66,-6.09
12013.60,-6.23
12133.74,-6.38
12255.08,-6.52
12377.63,-6.66
12501.41,-6.77
12626.42,-6.83
12752.68,-6.86
12880.21,-6.83
13009.01,-6.78
13139.10,-6.72
13270.49,-6.60
13403.20,-6.46
13537.23,-6.29
13672.60,-6.12
13809.33,-5.95
13947.42,-5.79
14086.90,-5.67
14227.77,-5.58
14370.04,-5.53
14513.74,-5.55
14658.88,-5.63
14805.47,-5.72
14953.52,-5.84
15103.06,-5.92
15254.09,-5.99
15406.63,-5.91
15560.70,-5.77
15716.30,-5.52
15873.47,-5.19
16032.20,-4.85
16192.52,-4.53
16354.45,-4.33
16517.99,-4.24
16683.17,-4.41
16850.01,-4.79
17018.51,-5.36
17188.69,-6.22
17360.58,-7.22
17534.18,-8.31
17709.53,-9.41
17886.62,-10.43
18065.49,-11.44
18246.14,-12.45
18428.60,-13.63
18612.89,-14.97
18799.02,-16.47
18987.01,-18.13
19176.88,-19.92
19368.65,-21.72
19562.33,-23.44
19757.96,-25.02
19955.54,-26.61
