frequency,raw
20.00,9.30
20.20,9.32
20.40,9.34
20.61,9.36
20.81,9.41
21.02,9.46
21.23,9.50
21.44,9.55
21.66,9.60
21.87,9.64
22.09,9.68
22.31,9.73
22.54,9.77
22.76,9.81
22.99,9.85
23.22,9.88
23.45,9.92
23.69,9.95
23.92,9.98
24.16,10.01
24.40,10.04
24.65,10.07
24.89,10.11
25.14,10.15
25.39,10.19
25.65,10.22
25.91,10.26
26.16,10.28
26.43,10.30
26.69,10.32
26.96,10.34
27.23,10.35
27.50,10.37
27.77,10.39
28.05,10.42
28.33,10.44
28.62,10.47
28.90,10.50
29.19,10.52
29.48,10.55
29.78,10.58
30.08,10.61
30.38,10.64
30.68,10.67
30.99,10.70
31.30,10.73
31.61,10.75
31.93,10.77
32.24,10.79
32.57,10.81
32.89,10.83
33.22,10.86
33.55,10.89
33.89,10.91
34.23,10.93
34.57,10.95
34.92,10.96
35.27,10.96
35.62,10.97
35.97,10.98
36.33,10.98
36.70,10.99
37.06,11.00
37.43,11.01
37.81,11.02
38.19,11.03
38.57,11.03
38.95,11.03
39.34,11.04
39.74,11.04
40.14,11.04
40.54,11.05
40.94,11.05
41.35,11.06
41.76,11.07
42.18,11.07
42.60,11.08
43.03,11.08
43.46,11.08
43.90,11.08
44.33,11.08
44.78,11.08
45.23,11.08
45.68,11.08
46.13,11.08
46.60,11.08
47.06,11.07
47.53,11.07
48.01,11.06
48.49,11.06
48.97,11.05
49.46,11.04
49.96,11.04
50.46,11.03
50.96,11.02
51.47,11.01
51.99,11.00
52.51,10.99
53.03,10.98
53.56,10.97
54.10,10.96
54.64,10.95
55.18,10.94
55.74,10.93
56.29,10.91
56.86,10.90
57.42,10.88
58.00,10.87
58.58,10.84
59.16,10.82
59.76,10.80
60.35,10.79
60.96,10.78
61.57,10.77
62.18,10.77
62.80,10.78
63.43,10.79
64.07,10.81
64.71,10.80
65.35,10.78
66.01,10.74
66.67,10.69
67.33,10.64
68.01,10.59
68.69,10.55
69.37,10.52
70.07,10.48
70.77,10.45
71.48,10.42
72.19,10.40
72.91,10.37
73.64,10.35
74.38,10.32
75.12,10.29
75.87,10.26
76.63,10.24
77.40,10.22
78.17,10.19
78.95,10.17
79.74,10.14
80.54,10.12
81.35,10.09
82.16,10.06
82.98,10.03
83.81,10.00
84.65,9.97
85.50,9.95
86.35,9.94
87.22,9.96
88.09,10.00
88.97,10.03
89.86,10.05
90.76,9.98
91.66,9.89
92.58,9.77
93.51,9.67
94.44,9.59
95.39,9.52
96.34,9.47
97.30,9.42
98.28,9.38
99.26,9.33
100.25,9.29
101.25,9.25
102.27,9.20
103.29,9.16
104.32,9.12
105.37,9.07
106.42,9.03
107.48,8.99
108.56,8.94
109.64,8.90
110.74,8.85
111.85,8.81
112.97,8.77
114.10,8.73
115.24,8.69
116.39,8.65
117.55,8.61
118.73,8.56
119.92,8.52
121.12,8.48
122.33,8.44
123.55,8.39
124.79,8.34
126.03,8.28
127.29,8.22
128.57,8.16
129.85,8.10
131.15,8.05
132.46,8.01
133.79,7.97
135.12,7.93
136.48,7.88
137.84,7.83
139.22,7.78
140.61,7.73
142.02,7.67
143.44,7.61
144.87,7.56
146.32,7.50
147.78,7.45
149.26,7.39
150.75,7.34
152.26,7.28
153.78,7.22
155.32,7.17
156.88,7.11
158.44,7.05
160.03,6.99
161.63,6.93
163.24,6.87
164.88,6.81
166.53,6.75
168.19,6.68
169.87,6.62
171.57,6.55
173.29,6.49
175.02,6.43
176.77,6.37
178.54,6.32
180.32,6.26
182.13,6.20
183.95,6.14
185.79,6.08
187.65,6.03
189.52,5.98
191.42,5.93
193.33,5.88
195.27,5.82
197.22,5.76
199.19,5.70
201.18,5.64
203.19,5.57
205.23,5.51
207.28,5.45
209.35,5.39
211.44,5.33
213.56,5.28
215.69,5.24
217.85,5.20
220.03,5.16
222.23,5.12
224.45,5.08
226.70,5.04
228.96,4.99
231.25,4.94
233.57,4.89
235.90,4.83
238.26,4.77
240.64,4.70
243.05,4.64
245.48,4.57
247.93,4.51
250.41,4.44
252.92,4.37
255.45,4.31
258.00,4.24
260.58,4.18
263.19,4.11
265.82,4.05
268.48,3.99
271.16,3.93
273.87,3.87
276.61,3.81
279.38,3.75
282.17,3.69
284.99,3.64
287.84,3.58
290.72,3.52
293.63,3.46
296.57,3.40
299.53,3.34
302.53,3.28
305.55,3.22
308.61,3.16
311.69,3.10
314.81,3.03
317.96,2.97
321.14,2.91
324.35,2.85
327.59,2.79
330.87,2.73
334.18,2.67
337.52,2.60
340.90,2.54
344.30,2.48
347.75,2.42
351.23,2.36
354.74,2.30
358.28,2.24
361.87,2.18
365.49,2.12
369.14,2.06
372.83,2.01
376.56,1.95
380.33,1.89
384.13,1.83
387.97,1.77
391.85,1.71
395.77,1.66
399.73,1.60
403.72,1.54
407.76,1.49
411.84,1.43
415.96,1.38
420.12,1.32
424.32,1.27
428.56,1.21
432.85,1.16
437.18,1.11
441.55,1.05
445.96,1.00
450.42,0.95
454.93,0.90
459.48,0.85
464.07,0.79
468.71,0.74
473.40,0.69
478.13,0.64
482.91,0.59
487.74,0.54
492.62,0.49
497.55,0.44
502.52,0.40
507.55,0.35
512.62,0.30
517.75,0.25
522.93,0.21
528.16,0.16
533.44,0.12
538.77,0.07
544.16,0.03
549.60,-0.01
555.10,-0.06
560.65,-0.10
566.25,-0.14
571.92,-0.18
577.64,-0.22
583.41,-0.26
589.25,-0.29
595.14,-0.33
601.09,-0.37
607.10,-0.40
613.17,-0.44
619.30,-0.47
625.50,-0.50
631.75,-0.53
638.07,-0.57
644.45,-0.60
650.89,-0.63
657.40,-0.65
663.98,-0.68
670.62,-0.71
677.32,-0.73
684.10,-0.75
690.94,-0.77
697.85,-0.79
704.83,-0.81
711.87,-0.83
718.99,-0.84
726.18,-0.86
733.44,-0.87
740.78,-0.88
748.19,-0.89
755.67,-0.90
763.23,-0.90
770.86,-0.90
778.57,-0.91
786.35,-0.91
794.22,-0.90
802.16,-0.90
810.18,-0.89
818.28,-0.88
826.46,-0.86
834.73,-0.85
843.08,-0.83
851.51,-0.80
860.02,-0.78
868.62,-0.75
877.31,-0.72
886.08,-0.68
894.94,-0.64
903.89,-0.60
912.93,-0.56
922.06,-0.51
931.28,-0.46
940.59,-0.40
950.00,-0.34
959.50,-0.28
969.09,-0.22
978.78,-0.15
988.57,-0.08
998.46,-0.01
1008.44,0.06
1018.53,0.14
1028.71,0.22
1039.00,0.30
1049.39,0.39
1059.88,0.47
1070.48,0.56
1081.19,0.65
1092.00,0.74
1102.92,0.84
1113.95,0.93
1125.09,1.03
1136.34,1.12
1147.70,1.22
1159.18,1.32
1170.77,1.42
1182.48,1.53
1194.30,1.64
1206.25,1.75
1218.31,1.86
1230.49,1.96
1242.80,2.06
1255.22,2.13
1267.78,2.19
1280.45,2.24
1293.26,2.30
1306.19,2.37
1319.25,2.44
1332.45,2.52
1345.77,2.60
1359.23,2.66
1372.82,2.68
1386.55,2.69
1400.41,2.67
1414.42,2.66
1428.56,2.65
1442.85,2.70
1457.28,2.78
1471.85,2.88
1486.57,2.99
1501.43,3.11
1516.45,3.24
1531.61,3.36
1546.93,3.48
1562.40,3.60
1578.02,3.71
1593.80,3.83
1609.74,3.95
1625.84,4.07
1642.10,4.20
1658.52,4.32
1675.10,4.45
1691.85,4.57
1708.77,4.70
1725.86,4.84
1743.12,4.97
1760.55,5.11
1778.15,5.25
1795.94,5.40
1813.90,5.54
1832.03,5.69
1850.36,5.85
1868.86,6.00
1887.55,6.16
1906.42,6.33
1925.49,6.49
1944.74,6.66
1964.19,6.83
1983.83,7.00
2003.67,7.18
2023.71,7.36
2043.94,7.54
2064.38,7.73
2085.03,7.92
2105.88,8.11
2126.94,8.31
2148.20,8.50
2169.69,8.69
2191.38,8.88
2213.30,9.06
2235.43,9.23
2257.78,9.40
2280.36,9.55
2303.17,9.70
2326.20,9.84
2349.46,9.96
2372.95,10.08
2396.68,10.18
2420.65,10.28
2444.86,10.37
2469.31,10.45
2494.00,10.53
2518.94,10.61
2544.13,10.70
2569.57,10.77
2595.27,10.84
2621.22,10.91
2647.43,10.96
2673.90,10.99
2700.64,11.00
2727.65,11.00
2754.93,10.98
2782.48,10.94
2810.30,10.90
2838.40,10.84
2866.79,10.78
2895.46,10.71
2924.41,10.64
2953.65,10.57
2983.19,10.50
3013.02,10.44
3043.15,10.38
3073.58,10.32
3104.32,10.27
3135.36,10.22
3166.72,10.18
3198.38,10.14
3230.37,10.10
3262.67,10.07
3295.30,10.04
3328.25,10.01
3361.53,9.99
3395.15,9.97
3429.10,9.96
3463.39,9.95
3498.03,9.95
3533.01,9.95
3568.34,9.96
3604.02,9.97
3640.06,9.99
3676.46,10.02
3713.22,10.06
3750.36,10.10
3787.86,10.16
3825.74,10.23
3864.00,10.33
3902.64,10.46
3941.66,10.59
3981.08,10.75
4020.89,10.94
4061.10,11.14
4101.71,11.35
4142.73,11.57
4184.15,11.80
4226.00,12.04
4268.26,12.26
4310.94,12.48
4354.05,12.68
4397.59,12.86
4441.56,13.01
4485.98,13.11
4530.84,13.16
4576.15,13.15
4621.91,13.10
4668.13,12.97
4714.81,12.77
4761.96,12.52
4809.58,12.21
4857.67,11.85
4906.25,11.44
4955.31,11.00
5004.87,10.54
5054.91,10.05
5105.46,9.56
5156.52,9.06
5208.08,8.56
5260.16,8.08
5312.77,7.61
5365.89,7.15
5419.55,6.71
5473.75,6.28
5528.49,5.88
5583.77,5.50
5639.61,5.14
5696.00,4.79
5752.96,4.47
5810.49,4.17
5868.60,3.89
5927.28,3.63
5986.56,3.39
6046.42,3.17
6106.89,2.97
6167.96,2.80
6229.64,2.65
6291.93,2.51
6354.85,2.41
6418.40,2.33
6482.58,2.27
6547.41,2.24
6612.88,2.23
6679.01,2.25
6745.80,2.31
6813.26,2.40
6881.39,2.53
6950.21,2.71
7019.71,2.92
7089.91,3.18
7160.81,3.51
7232.41,3.88
7304.74,4.31
7377.79,4.81
7451.56,5.38
7526.08,5.99
7601.34,6.66
7677.35,7.35
7754.13,8.05
7831.67,8.70
7909.98,9.29
7989.08,9.78
8068.98,10.03
8149.67,10.13
8231.16,10.00
8313.47,9.60
8396.61,9.07
8480.57,8.32
8565.38,7.46
8651.03,6.55
8737.54,5.60
8824.92,4.66
8913.17,3.79
9002.30,2.94
9092.32,2.20
9183.25,1.54
9275.08,0.94
9367.83,0.42
9461.51,-0.00
9556.12,-0.35
9651.68,-0.63
9748.20,-0.84
9845.68,-0.94
9944.14,-0.96
10043.58,-0.89
10144.02,-0.74
10245.46,-0.43
10347.91,-0.02
10451.39,0.51
10555.91,1.21
10661.46,2.01
10768.08,2.88
10875.76,3.77
10984.52,4.53
11094.36,5.16
11205.31,5.51
11317.36,5.36
11430.53,4.98
11544.84,4.12
11660.29,2.97
11776.89,1.68
11894.66,0.15
12013.60,-1.39
12133.74,-2.91
12255.08,-4.34
12377.63,-5.68
12501.41,-6.90
12626.42,-7.95
12752.68,-8.88
12880.21,-9.66
13009.01,-10.37
13139.10,-11.09
13270.49,-11.64
13403.20,-12.15
13537.23,-12.54
13672.60,-12.87
13809.33,-13.14
13947.42,-13.32
14086.90,-13.42
14227.77,-13.47
14370.04,-13.46
14513.74,-13.37
14658.88,-13.14
14805.47,-12.85
14953.52,-12.43
15103.06,-11.83
15254.09,-11.15
15406.63,-10.18
15560.70,-9.10
15716.30,-7.85
15873.47,-6.47
16032.20,-5.08
16192.52,-3.74
16354.45,-2.62
16517.99,-1.66
16683.17,-1.17
16850.01,-0.99
17018.51,-1.06
17188.69,-1.47
17360.58,-1.98
17534.18,-2.58
17709.53,-3.24
17886.62,-4.03
18065.49,-4.99
18246.14,-6.15
18428.60,-7.69
18612.89,-9.46
18799.02,-11.44
18987.01,-13.62
19176.88,-15.94
19368.65,-18.28
19562.33,-20.56
19757.96,-22.71
19955.54,-24.87
