frequency,raw
20.00,4.70
20.20,4.72
20.40,4.73
20.61,4.75
20.81,4.78
21.02,4.82
21.23,4.86
21.44,4.89
21.66,4.93
21.87,4.96
22.09,4.99
22.31,5.02
22.54,5.04
22.76,5.07
22.99,5.09
23.22,5.12
23.45,5.13
23.69,5.15
23.92,5.16
24.16,5.17
24.40,5.18
24.65,5.19
24.89,5.19
25.14,5.21
25.39,5.22
25.65,5.23
25.91,5.25
26.16,5.26
26.43,5.28
26.69,5.29
26.96,5.30
27.23,5.31
27.50,5.32
27.77,5.33
28.05,5.34
28.33,5.36
28.62,5.38
28.90,5.40
29.19,5.41
29.48,5.42
29.78,5.42
30.08,5.42
30.38,5.42
30.68,5.41
30.99,5.42
31.30,5.43
31.61,5.44
31.93,5.45
32.24,5.47
32.57,5.48
32.89,5.49
33.22,5.51
33.55,5.52
33.89,5.54
34.23,5.55
34.57,5.56
34.92,5.57
35.27,5.57
35.62,5.57
35.97,5.56
36.33,5.55
36.70,5.54
37.06,5.54
37.43,5.54
37.81,5.54
38.19,5.55
38.57,5.55
38.95,5.55
39.34,5.56
39.74,5.55
40.14,5.55
40.54,5.54
40.94,5.54
41.35,5.53
41.76,5.52
42.18,5.52
42.60,5.52
43.03,5.52
43.46,5.53
43.90,5.53
44.33,5.53
44.78,5.52
45.23,5.52
45.68,5.52
46.13,5.51
46.60,5.51
47.06,5.51
47.53,5.51
48.01,5.51
48.49,5.50
48.97,5.50
49.46,5.49
49.96,5.49
50.46,5.48
50.96,5.48
51.47,5.47
51.99,5.47
52.51,5.46
53.03,5.45
53.56,5.43
54.10,5.41
54.64,5.40
55.18,5.39
55.74,5.39
56.29,5.39
56.86,5.39
57.42,5.39
58.00,5.38
58.58,5.37
59.16,5.37
59.76,5.36
60.35,5.36
60.96,5.36
61.57,5.35
62.18,5.35
62.80,5.34
63.43,5.33
64.07,5.31
64.71,5.29
65.35,5.26
66.01,5.25
66.67,5.23
67.33,5.23
68.01,5.22
68.69,5.21
69.37,5.21
70.07,5.20
70.77,5.18
71.48,5.17
72.19,5.15
72.91,5.14
73.64,5.13
74.38,5.11
75.12,5.10
75.87,5.09
76.63,5.08
77.40,5.06
78.17,5.05
78.95,5.04
79.74,5.03
80.54,5.02
81.35,5.01
82.16,5.00
82.98,4.99
83.81,4.98
84.65,4.95
85.50,4.92
86.35,4.89
87.22,4.84
88.09,4.78
88.97,4.72
89.86,4.68
90.76,4.68
91.66,4.70
92.58,4.73
93.51,4.75
94.44,4.76
95.39,4.76
96.34,4.75
97.30,4.73
98.28,4.72
99.26,4.70
100.25,4.68
101.25,4.66
102.27,4.64
103.29,4.63
104.32,4.61
105.37,4.60
106.42,4.58
107.48,4.57
108.56,4.55
109.64,4.53
110.74,4.51
111.85,4.49
112.97,4.48
114.10,4.46
115.24,4.44
116.39,4.42
117.55,4.40
118.73,4.38
119.92,4.36
121.12,4.34
122.33,4.32
123.55,4.29
124.79,4.27
126.03,4.24
127.29,4.22
128.57,4.20
129.85,4.18
131.15,4.16
132.46,4.14
133.79,4.12
135.12,4.10
136.48,4.07
137.84,4.04
139.22,4.01
140.61,3.98
142.02,3.95
143.44,3.92
144.87,3.89
146.32,3.86
147.78,3.82
149.26,3.79
150.75,3.77
152.26,3.75
153.78,3.74
155.32,3.74
156.88,3.73
158.44,3.73
160.03,3.72
161.63,3.70
163.24,3.68
164.88,3.66
166.53,3.64
168.19,3.61
169.87,3.58
171.57,3.55
173.29,3.52
175.02,3.49
176.77,3.45
178.54,3.42
180.32,3.39
182.13,3.36
183.95,3.33
185.79,3.31
187.65,3.28
189.52,3.25
191.42,3.22
193.33,3.18
195.27,3.15
197.22,3.11
199.19,3.07
201.18,3.03
203.19,2.99
205.23,2.95
207.28,2.91
209.35,2.87
211.44,2.83
213.56,2.80
215.69,2.76
217.85,2.72
220.03,2.69
222.23,2.66
224.45,2.63
226.70,2.60
228.96,2.58
231.25,2.56
233.57,2.54
235.90,2.52
238.26,2.49
240.64,2.47
243.05,2.45
245.48,2.42
247.93,2.40
250.41,2.37
252.92,2.34
255.45,2.31
258.00,2.28
260.58,2.25
263.19,2.22
265.82,2.19
268.48,2.16
271.16,2.13
273.87,2.09
276.61,2.06
279.38,2.03
282.17,1.99
284.99,1.95
287.84,1.91
290.72,1.87
293.63,1.84
296.57,1.80
299.53,1.76
302.53,1.72
305.55,1.69
308.61,1.65
311.69,1.61
314.81,1.58
317.96,1.54
321.14,1.50
324.35,1.47
327.59,1.43
330.87,1.39
334.18,1.36
337.52,1.32
340.90,1.28
344.30,1.25
347.75,1.21
351.23,1.18
354.74,1.14
358.28,1.11
361.87,1.07
365.49,1.03
369.14,1.00
372.83,0.96
376.56,0.92
380.33,0.88
384.13,0.84
387.97,0.81
391.85,0.77
395.77,0.73
399.73,0.70
403.72,0.66
407.76,0.63
411.84,0.59
415.96,0.55
420.12,0.52
424.32,0.48
428.56,0.44
432.85,0.40
437.18,0.36
441.55,0.32
445.96,0.29
450.42,0.25
454.93,0.21
459.48,0.18
464.07,0.14
468.71,0.10
473.40,0.07
478.13,0.04
482.91,0.00
487.74,-0.03
492.62,-0.07
497.55,-0.10
502.52,-0.14
507.55,-0.17
512.62,-0.21
517.75,-0.24
522.93,-0.28
528.16,-0.31
533.44,-0.35
538.77,-0.38
544.16,-0.41
549.60,-0.45
555.10,-0.48
560.65,-0.51
566.25,-0.54
571.92,-0.57
577.64,-0.60
583.41,-0.63
589.25,-0.66
595.14,-0.68
601.09,-0.71
607.10,-0.74
613.17,-0.76
619.30,-0.79
625.50,-0.82
631.75,-0.84
638.07,-0.87
644.45,-0.89
650.89,-0.91
657.40,-0.94
663.98,-0.96
670.62,-0.98
677.32,-1.01
684.10,-1.03
690.94,-1.05
697.85,-1.07
704.83,-1.08
711.87,-1.10
718.99,-1.11
726.18,-1.12
733.44,-1.14
740.78,-1.15
748.19,-1.16
755.67,-1.17
763.23,-1.18
770.86,-1.18
778.57,-1.19
786.35,-1.19
794.22,-1.19
802.16,-1.19
810.18,-1.18
818.28,-1.17
826.46,-1.16
834.73,-1.14
843.08,-1.12
851.51,-1.10
860.02,-1.07
868.62,-1.03
877.31,-1.00
886.08,-0.96
894.94,-0.91
903.89,-0.86
912.93,-0.80
922.06,-0.73
931.28,-0.66
940.59,-0.58
950.00,-0.50
959.50,-0.41
969.09,-0.32
978.78,-0.22
988.57,-0.12
998.46,-0.02
1008.44,0.09
1018.53,0.19
1028.71,0.30
1039.00,0.41
1049.39,0.51
1059.88,0.62
1070.48,0.72
1081.19,0.83
1092.00,0.93
1102.92,1.03
1113.95,1.13
1125.09,1.23
1136.34,1.33
1147.70,1.43
1159.18,1.52
1170.77,1.61
1182.48,1.70
1194.30,1.79
1206.25,1.88
1218.31,1.97
1230.49,2.05
1242.80,2.14
1255.22,2.22
1267.78,2.30
1280.45,2.38
1293.26,2.46
1306.19,2.54
1319.25,2.62
1332.45,2.70
1345.77,2.77
1359.23,2.85
1372.82,2.93
1386.55,3.00
1400.41,3.08
1414.42,3.16
1428.56,3.23
1442.85,3.31
1457.28,3.39
1471.85,3.47
1486.57,3.55
1501.43,3.64
1516.45,3.72
1531.61,3.80
1546.93,3.89
1562.40,3.98
1578.02,4.07
1593.80,4.16
1609.74,4.25
1625.84,4.35
1642.10,4.44
1658.52,4.54
1675.10,4.64
1691.85,4.75
1708.77,4.85
1725.86,4.96
1743.12,5.07
1760.55,5.19
1778.15,5.30
1795.94,5.42
1813.90,5.54
1832.03,5.66
1850.36,5.79
1868.86,5.92
1887.55,6.05
1906.42,6.18
1925.49,6.31
1944.74,6.45
1964.19,6.59
1983.83,6.73
2003.67,6.87
2023.71,7.01
2043.94,7.16
2064.38,7.30
2085.03,7.45
2105.88,7.60
2126.94,7.74
2148.20,7.89
2169.69,8.03
2191.38,8.18
2213.30,8.32
2235.43,8.46
2257.78,8.59
2280.36,8.73
2303.17,8.86
2326.20,8.98
2349.46,9.10
2372.95,9.21
2396.68,9.32
2420.65,9.43
2444.86,9.52
2469.31,9.61
2494.00,9.69
2518.94,9.77
2544.13,9.83
2569.57,9.89
2595.27,9.94
2621.22,9.98
2647.43,10.02
2673.90,10.04
2700.64,10.06
2727.65,10.06
2754.93,10.07
2782.48,10.06
2810.30,10.04
2838.40,10.03
2866.79,10.00
2895.46,9.98
2924.41,9.96
2953.65,9.94
2983.19,9.93
3013.02,9.93
3043.15,9.93
3073.58,9.94
3104.32,9.96
3135.36,9.97
3166.72,9.98
3198.38,9.99
3230.37,10.00
3262.67,10.00
3295.30,10.01
3328.25,10.02
3361.53,10.03
3395.15,10.05
3429.10,10.08
3463.39,10.11
3498.03,10.14
3533.01,10.19
3568.34,10.24
3604.02,10.30
3640.06,10.37
3676.46,10.45
3713.22,10.54
3750.36,10.63
3787.86,10.74
3825.74,10.86
3864.00,10.98
3902.64,11.12
3941.66,11.26
3981.08,11.42
4020.89,11.57
4061.10,11.74
4101.71,11.91
4142.73,12.08
4184.15,12.25
4226.00,12.42
4268.26,12.58
4310.94,12.73
4354.05,12.86
4397.59,12.97
4441.56,13.06
4485.98,13.11
4530.84,13.13
4576.15,13.10
4621.91,13.04
4668.13,12.92
4714.81,12.75
4761.96,12.54
4809.58,12.29
4857.67,11.99
4906.25,11.66
4955.31,11.31
5004.87,10.94
5054.91,10.55
5105.46,10.14
5156.52,9.74
5208.08,9.32
5260.16,8.90
5312.77,8.48
5365.89,8.07
5419.55,7.66
5473.75,7.26
5528.49,6.87
5583.77,6.50
5639.61,6.14
5696.00,5.80
5752.96,5.48
5810.49,5.17
5868.60,4.88
5927.28,4.61
5986.56,4.35
6046.42,4.12
6106.89,3.90
6167.96,3.70
6229.64,3.51
6291.93,3.34
6354.85,3.20
6418.40,3.06
6482.58,2.95
6547.41,2.86
6612.88,2.80
6679.01,2.76
6745.80,2.76
6813.26,2.78
6881.39,2.83
6950.21,2.92
7019.71,3.04
7089.91,3.20
7160.81,3.40
7232.41,3.65
7304.74,3.93
7377.79,4.27
7451.56,4.67
7526.08,5.13
7601.34,5.65
7677.35,6.26
7754.13,6.90
7831.67,7.64
7909.98,8.42
7989.08,9.25
8068.98,10.08
8149.67,10.87
8231.16,11.59
8313.47,12.12
8396.61,12.52
8480.57,12.64
8565.38,12.48
8651.03,12.12
8737.54,11.54
8824.92,10.77
8913.17,9.90
9002.30,8.99
9092.32,8.08
9183.25,7.23
9275.08,6.43
9367.83,5.72
9461.51,5.12
9556.12,4.61
9651.68,4.18
9748.20,3.83
9845.68,3.60
9944.14,3.44
10043.58,3.38
10144.02,3.39
10245.46,3.53
10347.91,3.74
10451.39,4.04
10555.91,4.46
10661.46,4.96
10768.08,5.51
10875.76,6.11
10984.52,6.69
11094.36,7.21
11205.31,7.62
11317.36,7.77
11430.53,7.77
11544.84,7.46
11660.29,6.92
11776.89,6.25
11894.66,5.30
12013.60,4.31
12133.74,3.27
12255.08,2.22
12377.63,1.20
12501.41,0.24
12626.42,-0.62
12752.68,-1.38
12880.21,-2.01
13009.01,-2.57
13139.10,-3.13
13270.49,-3.52
13403.20,-3.87
13537.23,-4.10
13672.60,-4.27
13809.33,-4.39
13947.42,-4.42
14086.90,-4.37
14227.77,-4.29
14370.04,-4.14
14513.74,-3.94
14658.88,-3.66
14805.47,-3.36
14953.52,-3.01
15103.06,-2.65
15254.09,-2.29
15406.63,-1.97
15560.70,-1.69
15716.30,-1.47
15873.47,-1.36
16032.20,-1.29
16192.52,-1.30
16354.45,-1.31
16517.99,-1.31
16683.17,-1.23
16850.01,-1.09
17018.51,-0.91
17188.69,-0.73
17360.58,-0.66
17534.18,-0.71
17709.53,-1.01
17886.62,-1.54
18065.49,-2.23
18246.14,-3.04
18428.60,-3.96
18612.89,-4.92
18799.02,-5.91
18987.01,-6.94
19176.88,-7.99
19368.65,-9.03
19562.33,-10.01
19757.96,-10.92
19955.54,-11.82
