frequency,raw
20.00,8.74
20.20,8.73
20.40,8.73
20.61,8.73
20.81,8.72
21.02,8.70
21.23,8.69
21.44,8.67
21.66,8.65
21.87,8.63
22.09,8.62
22.31,8.60
22.54,8.58
22.76,8.56
22.99,8.55
23.22,8.53
23.45,8.51
23.69,8.49
23.92,8.47
24.16,8.45
24.40,8.43
24.65,8.41
24.89,8.38
25.14,8.35
25.39,8.32
25.65,8.29
25.91,8.25
26.16,8.21
26.43,8.17
26.69,8.14
26.96,8.11
27.23,8.09
27.50,8.07
27.77,8.07
28.05,8.06
28.33,8.05
28.62,8.05
28.90,8.03
29.19,8.01
29.48,7.99
29.78,7.95
30.08,7.92
30.38,7.87
30.68,7.82
30.99,7.77
31.30,7.73
31.61,7.69
31.93,7.67
32.24,7.66
32.57,7.65
32.89,7.64
33.22,7.61
33.55,7.58
33.89,7.53
34.23,7.48
34.57,7.42
34.92,7.37
35.27,7.32
35.62,7.28
35.97,7.25
36.33,7.22
36.70,7.20
37.06,7.17
37.43,7.13
37.81,7.09
38.19,7.05
38.57,7.00
38.95,6.96
39.34,6.92
39.74,6.87
40.14,6.83
40.54,6.79
40.94,6.74
41.35,6.70
41.76,6.66
42.18,6.62
42.60,6.57
43.03,6.53
43.46,6.48
43.90,6.44
44.33,6.39
44.78,6.34
45.23,6.30
45.68,6.25
46.13,6.19
46.60,6.14
47.06,6.08
47.53,6.03
48.01,5.99
48.49,5.94
48.97,5.90
49.46,5.86
49.96,5.81
50.46,5.77
50.96,5.72
51.47,5.67
51.99,5.62
52.51,5.57
53.03,5.51
53.56,5.45
54.10,5.40
54.64,5.34
55.18,5.29
55.74,5.23
56.29,5.18
56.86,5.13
57.42,5.08
58.00,5.02
58.58,4.97
59.16,4.91
59.76,4.86
60.35,4.80
60.96,4.74
61.57,4.69
62.18,4.63
62.80,4.57
63.43,4.51
64.07,4.45
64.71,4.40
65.35,4.34
66.01,4.29
66.67,4.23
67.33,4.18
68.01,4.13
68.69,4.07
69.37,4.02
70.07,3.96
70.77,3.91
71.48,3.85
72.19,3.79
72.91,3.73
73.64,3.66
74.38,3.60
75.12,3.53
75.87,3.47
76.63,3.41
77.40,3.35
78.17,3.30
78.95,3.24
79.74,3.18
80.54,3.13
81.35,3.07
82.16,3.01
82.98,2.95
83.81,2.89
84.65,2.84
85.50,2.78
86.35,2.72
87.22,2.66
88.09,2.60
88.97,2.55
89.86,2.49
90.76,2.43
91.66,2.37
92.58,2.31
93.51,2.25
94.44,2.19
95.39,2.13
96.34,2.07
97.30,2.01
98.28,1.96
99.26,1.90
100.25,1.85
101.25,1.79
102.27,1.74
103.29,1.68
104.32,1.62
105.37,1.56
106.42,1.50
107.48,1.43
108.56,1.37
109.64,1.32
110.74,1.26
111.85,1.20
112.97,1.15
114.10,1.09
115.24,1.04
116.39,0.99
117.55,0.93
118.73,0.87
119.92,0.81
121.12,0.76
122.33,0.70
123.55,0.65
124.79,0.60
126.03,0.55
127.29,0.49
128.57,0.43
129.85,0.38
131.15,0.32
132.46,0.26
133.79,0.21
135.12,0.15
136.48,0.10
137.84,0.05
139.22,-0.01
140.61,-0.06
142.02,-0.11
143.44,-0.17
144.87,-0.22
146.32,-0.27
147.78,-0.32
149.26,-0.37
150.75,-0.43
152.26,-0.48
153.78,-0.53
155.32,-0.59
156.88,-0.64
158.44,-0.69
160.03,-0.75
161.63,-0.80
163.24,-0.86
164.88,-0.92
166.53,-0.97
168.19,-1.02
169.87,-1.07
171.57,-1.11
173.29,-1.14
175.02,-1.17
176.77,-1.19
178.54,-1.21
180.32,-1.22
182.13,-1.22
183.95,-1.22
185.79,-1.23
187.65,-1.23
189.52,-1.23
191.42,-1.23
193.33,-1.24
195.27,-1.26
197.22,-1.28
199.19,-1.31
201.18,-1.34
203.19,-1.37
205.23,-1.41
207.28,-1.45
209.35,-1.49
211.44,-1.52
213.56,-1.56
215.69,-1.60
217.85,-1.63
220.03,-1.67
222.23,-1.70
224.45,-1.73
226.70,-1.76
228.96,-1.79
231.25,-1.82
233.57,-1.85
235.90,-1.88
238.26,-1.91
240.64,-1.93
243.05,-1.96
245.48,-1.98
247.93,-2.01
250.41,-2.03
252.92,-2.05
255.45,-2.07
258.00,-2.09
260.58,-2.11
263.19,-2.13
265.82,-2.15
268.48,-2.17
271.16,-2.19
273.87,-2.20
276.61,-2.21
279.38,-2.23
282.17,-2.24
284.99,-2.25
287.84,-2.26
290.72,-2.27
293.63,-2.28
296.57,-2.29
299.53,-2.30
302.53,-2.31
305.55,-2.32
308.61,-2.33
311.69,-2.34
314.81,-2.35
317.96,-2.36
321.14,-2.37
324.35,-2.38
327.59,-2.39
330.87,-2.39
334.18,-2.40
337.52,-2.41
340.90,-2.42
344.30,-2.43
347.75,-2.43
351.23,-2.43
354.74,-2.42
358.28,-2.41
361.87,-2.38
365.49,-2.35
369.14,-2.31
372.83,-2.28
376.56,-2.25
380.33,-2.22
384.13,-2.19
387.97,-2.18
391.85,-2.16
395.77,-2.15
399.73,-2.14
403.72,-2.13
407.76,-2.12
411.84,-2.11
415.96,-2.10
420.12,-2.09
424.32,-2.08
428.56,-2.06
432.85,-2.05
437.18,-2.04
441.55,-2.02
445.96,-2.00
450.42,-1.99
454.93,-1.97
459.48,-1.95
464.07,-1.93
468.71,-1.91
473.40,-1.89
478.13,-1.86
482.91,-1.84
487.74,-1.81
492.62,-1.79
497.55,-1.76
502.52,-1.74
507.55,-1.71
512.62,-1.68
517.75,-1.65
522.93,-1.63
528.16,-1.60
533.44,-1.57
538.77,-1.54
544.16,-1.51
549.60,-1.48
555.10,-1.45
560.65,-1.42
566.25,-1.39
571.92,-1.37
577.64,-1.34
583.41,-1.31
589.25,-1.28
595.14,-1.25
601.09,-1.22
607.10,-1.20
613.17,-1.17
619.30,-1.14
625.50,-1.11
631.75,-1.09
638.07,-1.06
644.45,-1.04
650.89,-1.01
657.40,-0.98
663.98,-0.96
670.62,-0.93
677.32,-0.90
684.10,-0.88
690.94,-0.85
697.85,-0.84
704.83,-0.82
711.87,-0.80
718.99,-0.79
726.18,-0.77
733.44,-0.74
740.78,-0.71
748.19,-0.68
755.67,-0.66
763.23,-0.63
770.86,-0.62
778.57,-0.61
786.35,-0.60
794.22,-0.58
802.16,-0.57
810.18,-0.55
818.28,-0.54
826.46,-0.52
834.73,-0.50
843.08,-0.48
851.51,-0.46
860.02,-0.44
868.62,-0.41
877.31,-0.39
886.08,-0.37
894.94,-0.34
903.89,-0.32
912.93,-0.29
922.06,-0.26
931.28,-0.23
940.59,-0.20
950.00,-0.17
959.50,-0.14
969.09,-0.11
978.78,-0.08
988.57,-0.04
998.46,-0.01
1008.44,0.03
1018.53,0.07
1028.71,0.11
1039.00,0.15
1049.39,0.19
1059.88,0.24
1070.48,0.28
1081.19,0.32
1092.00,0.36
1102.92,0.40
1113.95,0.44
1125.09,0.47
1136.34,0.51
1147.70,0.55
1159.18,0.58
1170.77,0.61
1182.48,0.65
1194.30,0.67
1206.25,0.70
1218.31,0.73
1230.49,0.75
1242.80,0.78
1255.22,0.80
1267.78,0.81
1280.45,0.83
1293.26,0.84
1306.19,0.86
1319.25,0.87
1332.45,0.88
1345.77,0.89
1359.23,0.90
1372.82,0.90
1386.55,0.91
1400.41,0.91
1414.42,0.92
1428.56,0.92
1442.85,0.92
1457.28,0.92
1471.85,0.92
1486.57,0.92
1501.43,0.92
1516.45,0.92
1531.61,0.92
1546.93,0.92
1562.40,0.92
1578.02,0.92
1593.80,0.92
1609.74,0.92
1625.84,0.92
1642.10,0.93
1658.52,0.93
1675.10,0.93
1691.85,0.94
1708.77,0.94
1725.86,0.95
1743.12,0.96
1760.55,0.97
1778.15,0.98
1795.94,0.99
1813.90,1.01
1832.03,1.02
1850.36,1.04
1868.86,1.06
1887.55,1.08
1906.42,1.10
1925.49,1.12
1944.74,1.14
1964.19,1.17
1983.83,1.20
2003.67,1.23
2023.71,1.26
2043.94,1.29
2064.38,1.33
2085.03,1.36
2105.88,1.40
2126.94,1.44
2148.20,1.48
2169.69,1.52
2191.38,1.56
2213.30,1.60
2235.43,1.64
2257.78,1.69
2280.36,1.73
2303.17,1.77
2326.20,1.81
2349.46,1.86
2372.95,1.90
2396.68,1.94
2420.65,1.98
2444.86,2.02
2469.31,2.06
2494.00,2.09
2518.94,2.13
2544.13,2.16
2569.57,2.18
2595.27,2.21
2621.22,2.23
2647.43,2.25
2673.90,2.26
2700.64,2.27
2727.65,2.27
2754.93,2.27
2782.48,2.26
2810.30,2.24
2838.40,2.21
2866.79,2.17
2895.46,2.12
2924.41,2.05
2953.65,1.98
2983.19,1.88
3013.02,1.78
3043.15,1.66
3073.58,1.52
3104.32,1.37
3135.36,1.21
3166.72,1.04
3198.38,0.87
3230.37,0.71
3262.67,0.55
3295.30,0.40
3328.25,0.27
3361.53,0.15
3395.15,0.05
3429.10,-0.03
3463.39,-0.10
3498.03,-0.14
3533.01,-0.17
3568.34,-0.19
3604.02,-0.20
3640.06,-0.21
3676.46,-0.22
3713.22,-0.23
3750.36,-0.24
3787.86,-0.26
3825.74,-0.28
3864.00,-0.30
3902.64,-0.32
3941.66,-0.33
3981.08,-0.34
4020.89,-0.33
4061.10,-0.32
4101.71,-0.29
4142.73,-0.26
4184.15,-0.23
4226.00,-0.21
4268.26,-0.19
4310.94,-0.17
4354.05,-0.08
4397.59,0.08
4441.56,0.28
4485.98,0.52
4530.84,0.76
4576.15,0.97
4621.91,1.16
4668.13,1.30
4714.81,1.40
4761.96,1.47
4809.58,1.50
4857.67,1.52
4906.25,1.54
4955.31,1.57
5004.87,1.62
5054.91,1.70
5105.46,1.82
5156.52,1.96
5208.08,2.15
5260.16,2.36
5312.77,2.58
5365.89,2.82
5419.55,3.06
5473.75,3.30
5528.49,3.53
5583.77,3.74
5639.61,3.93
5696.00,4.12
5752.96,4.27
5810.49,4.42
5868.60,4.54
5927.28,4.64
5986.56,4.74
6046.42,4.83
6106.89,4.92
6167.96,5.00
6229.64,5.09
6291.93,5.18
6354.85,5.28
6418.40,5.39
6482.58,5.50
6547.41,5.63
6612.88,5.75
6679.01,5.87
6745.80,5.99
6813.26,6.08
6881.39,6.15
6950.21,6.18
7019.71,6.18
7089.91,6.14
7160.81,6.05
7232.41,5.93
7304.74,5.78
7377.79,5.56
7451.56,5.31
7526.08,5.01
7601.34,4.67
7677.35,4.29
7754.13,3.89
7831.67,3.47
7909.98,3.04
7989.08,2.61
8068.98,2.20
8149.67,1.79
8231.16,1.40
8313.47,1.03
8396.61,0.68
8480.57,0.35
8565.38,0.05
8651.03,-0.22
8737.54,-0.47
8824.92,-0.68
8913.17,-0.85
9002.30,-1.01
9092.32,-1.12
9183.25,-1.19
9275.08,-1.24
9367.83,-1.25
9461.51,-1.22
9556.12,-1.16
9651.68,-1.08
9748.20,-0.97
9845.68,-0.84
9944.14,-0.71
10043.58,-0.59
10144.02,-0.47
10245.46,-0.42
10347.91,-0.40
10451.39,-0.44
10555.91,-0.59
10661.46,-0.81
10768.08,-1.09
10875.76,-1.46
10984.52,-1.87
11094.36,-2.29
11205.31,-2.71
11317.36,-3.04
11430.53,-3.33
11544.84,-3.51
11660.29,-3.60
11776.89,-3.63
11894.66,-3.54
12013.60,-3.43
12133.74,-3.27
12255.08,-3.05
12377.63,-2.79
12501.41,-2.48
12626.42,-2.12
12752.68,-1.69
12880.21,-1.19
13009.01,-0.66
13139.10,-0.13
13270.49,0.46
13403.20,1.05
13537.23,1.57
13672.60,2.01
13809.33,2.35
13947.42,2.43
14086.90,2.25
14227.77,1.91
14370.04,1.36
14513.74,0.58
14658.88,-0.43
14805.47,-1.48
14953.52,-2.61
15103.06,-3.69
15254.09,-4.76
15406.63,-5.66
15560.70,-6.48
15716.30,-7.18
15873.47,-7.75
16032.20,-8.24
16192.52,-8.62
16354.45,-8.93
16517.99,-9.18
16683.17,-9.35
16850.01,-9.49
17018.51,-9.59
17188.69,-9.68
17360.58,-9.78
17534.18,-9.92
17709.53,-10.13
17886.62,-10.47
18065.49,-10.91
18246.14,-11.46
18428.60,-12.20
18612.89,-13.09
18799.02,-14.14
18987.01,-15.38
19176.88,-16.83
19368.65,-18.37
19562.33,-19.93
19757.96,-21.44
19955.54,-22.94
