frequency,raw,smoothed,error,error_smoothed,equalization,parametric_eq,fixed_band_eq,equalized_raw,equalized_smoothed,target
20.00,7.57,7.57,1.13,1.13,-1.13,-1.83,-0.95,6.44,6.44,6.44
20.20,7.61,7.61,1.17,1.17,-1.17,-1.84,-0.98,6.44,6.44,6.44
20.40,7.65,7.65,1.21,1.21,-1.21,-1.84,-1.01,6.44,6.44,6.44
20.61,7.69,7.69,1.25,1.25,-1.25,-1.84,-1.04,6.44,6.44,6.44
20.81,7.73,7.73,1.29,1.29,-1.29,-1.84,-1.07,6.44,6.44,6.44
21.02,7.77,7.77,1.33,1.33,-1.33,-1.84,-1.10,6.44,6.44,6.44
21.23,7.80,7.80,1.36,1.37,-1.37,-1.85,-1.13,6.43,6.44,6.44
21.44,7.84,7.84,1.41,1.40,-1.40,-1.85,-1.17,6.44,6.43,6.44
21.66,7.87,7.87,1.44,1.44,-1.44,-1.85,-1.20,6.43,6.43,6.43
21.87,7.91,7.91,1.48,1.48,-1.47,-1.85,-1.24,6.44,6.43,6.43
22.09,7.94,7.94,1.51,1.51,-1.51,-1.85,-1.27,6.43,6.43,6.43
22.31,7.97,7.97,1.54,1.54,-1.54,-1.86,-1.31,6.43,6.43,6.43
22.54,8.00,8.00,1.57,1.57,-1.57,-1.86,-1.35,6.43,6.43,6.43
22.76,8.03,8.03,1.60,1.60,-1.60,-1.86,-1.39,6.43,6.43,6.43
22.99,8.06,8.06,1.63,1.63,-1.63,-1.86,-1.43,6.43,6.43,6.43
23.22,8.09,8.09,1.66,1.66,-1.66,-1.87,-1.47,6.43,6.43,6.43
23.45,8.11,8.11,1.68,1.69,-1.69,-1.87,-1.51,6.42,6.43,6.43
23.69,8.14,8.14,1.71,1.71,-1.72,-1.87,-1.55,6.42,6.42,6.43
23.92,8.17,8.17,1.75,1.74,-1.74,-1.87,-1.60,6.43,6.42,6.42
24.16,8.19,8.19,1.77,1.77,-1.77,-1.87,-1.64,6.42,6.42,6.42
24.40,8.22,8.22,1.80,1.80,-1.80,-1.88,-1.68,6.42,6.42,6.42
24.65,8.24,8.24,1.82,1.82,-1.82,-1.88,-1.73,6.42,6.42,6.42
24.89,8.27,8.27,1.85,1.85,-1.85,-1.88,-1.78,6.42,6.42,6.42
25.14,8.29,8.29,1.87,1.87,-1.87,-1.89,-1.82,6.42,6.42,6.42
25.39,8.31,8.31,1.89,1.89,-1.89,-1.89,-1.87,6.42,6.42,6.42
25.65,8.33,8.33,1.91,1.92,-1.92,-1.89,-1.92,6.41,6.41,6.42
25.91,8.35,8.35,1.94,1.94,-1.94,-1.89,-1.96,6.41,6.41,6.41
26.16,8.37,8.37,1.96,1.96,-1.96,-1.90,-2.01,6.41,6.41,6.41
26.43,8.39,8.39,1.98,1.98,-1.98,-1.90,-2.05,6.41,6.41,6.41
26.69,8.41,8.41,2.00,2.00,-2.00,-1.90,-2.10,6.41,6.41,6.41
26.96,8.43,8.43,2.02,2.02,-2.02,-1.91,-2.15,6.41,6.41,6.41
27.23,8.44,8.44,2.03,2.04,-2.04,-1.91,-2.19,6.40,6.41,6.41
27.50,8.46,8.46,2.06,2.05,-2.06,-1.91,-2.23,6.40,6.40,6.40
27.77,8.47,8.47,2.07,2.07,-2.07,-1.91,-2.27,6.40,6.40,6.40
28.05,8.49,8.49,2.09,2.09,-2.09,-1.92,-2.31,6.40,6.40,6.40
28.33,8.50,8.50,2.10,2.11,-2.11,-1.92,-2.35,6.40,6.40,6.40
28.62,8.52,8.52,2.12,2.12,-2.12,-1.92,-2.39,6.40,6.40,6.40
28.90,8.53,8.53,2.14,2.14,-2.14,-1.93,-2.42,6.40,6.39,6.39
29.19,8.54,8.54,2.15,2.15,-2.15,-1.93,-2.45,6.39,6.39,6.39
29.48,8.55,8.55,2.16,2.16,-2.16,-1.94,-2.48,6.39,6.39,6.39
29.78,8.56,8.56,2.17,2.17,-2.18,-1.94,-2.51,6.38,6.38,6.39
30.08,8.57,8.57,2.19,2.19,-2.19,-1.94,-2.53,6.38,6.38,6.38
30.38,8.58,8.58,2.20,2.20,-2.20,-1.95,-2.55,6.38,6.38,6.38
30.68,8.59,8.59,2.21,2.21,-2.21,-1.95,-2.57,6.38,6.38,6.38
30.99,8.60,8.60,2.23,2.22,-2.22,-1.95,-2.58,6.38,6.38,6.37
31.30,8.60,8.60,2.23,2.23,-2.23,-1.96,-2.59,6.37,6.37,6.37
31.61,8.61,8.61,2.24,2.24,-2.24,-1.96,-2.60,6.37,6.37,6.37
31.93,8.61,8.61,2.25,2.25,-2.25,-1.97,-2.60,6.36,6.36,6.37
32.24,8.62,8.62,2.26,2.26,-2.26,-1.97,-2.60,6.36,6.36,6.36
32.57,8.62,8.62,2.26,2.26,-2.26,-1.97,-2.60,6.36,6.36,6.36
32.89,8.63,8.63,2.28,2.27,-2.27,-1.98,-2.60,6.36,6.36,6.35
33.22,8.63,8.63,2.28,2.28,-2.28,-1.98,-2.59,6.35,6.35,6.35
33.55,8.63,8.63,2.28,2.28,-2.28,-1.99,-2.58,6.35,6.35,6.35
33.89,8.63,8.63,2.29,2.29,-2.29,-1.99,-2.56,6.34,6.34,6.34
34.23,8.63,8.63,2.29,2.29,-2.29,-2.00,-2.55,6.34,6.34,6.34
34.57,8.63,8.63,2.30,2.30,-2.30,-2.00,-2.53,6.33,6.33,6.33
34.92,8.63,8.63,2.30,2.30,-2.30,-2.01,-2.51,6.33,6.33,6.33
35.27,8.63,8.63,2.31,2.31,-2.31,-2.01,-2.49,6.32,6.32,6.33
35.62,8.63,8.63,2.31,2.31,-2.31,-2.02,-2.47,6.32,6.32,6.32
35.97,8.63,8.63,2.32,2.31,-2.31,-2.02,-2.45,6.32,6.32,6.32
36.33,8.63,8.63,2.32,2.32,-2.32,-2.03,-2.42,6.31,6.31,6.31
36.70,8.62,8.62,2.32,2.32,-2.32,-2.03,-2.40,6.30,6.30,6.30
37.06,8.62,8.62,2.32,2.32,-2.32,-2.04,-2.37,6.30,6.30,6.30
37.43,8.61,8.61,2.32,2.32,-2.32,-2.04,-2.35,6.29,6.29,6.29
37.81,8.61,8.61,2.32,2.32,-2.32,-2.05,-2.32,6.29,6.29,6.29
38.19,8.60,8.60,2.32,2.32,-2.32,-2.05,-2.30,6.28,6.28,6.28
38.57,8.60,8.60,2.33,2.32,-2.32,-2.06,-2.28,6.28,6.28,6.27
38.95,8.59,8.59,2.32,2.32,-2.32,-2.06,-2.25,6.27,6.27,6.27
39.34,8.58,8.58,2.32,2.32,-2.32,-2.07,-2.23,6.26,6.26,6.26
39.74,8.57,8.57,2.32,2.32,-2.32,-2.07,-2.21,6.25,6.25,6.25
40.14,8.56,8.56,2.32,2.32,-2.32,-2.08,-2.19,6.24,6.24,6.25
40.54,8.56,8.56,2.32,2.32,-2.32,-2.09,-2.17,6.24,6.24,6.24
40.94,8.55,8.55,2.32,2.32,-2.32,-2.09,-2.15,6.23,6.23,6.23
41.35,8.54,8.54,2.32,2.32,-2.32,-2.10,-2.13,6.23,6.22,6.22
41.76,8.52,8.52,2.31,2.31,-2.31,-2.10,-2.11,6.21,6.21,6.21
42.18,8.51,8.51,2.31,2.31,-2.31,-2.11,-2.10,6.20,6.20,6.20
42.60,8.50,8.50,2.31,2.31,-2.31,-2.12,-2.09,6.19,6.19,6.19
43.03,8.49,8.49,2.31,2.31,-2.31,-2.12,-2.07,6.19,6.18,6.18
43.46,8.48,8.48,2.31,2.30,-2.30,-2.13,-2.06,6.18,6.18,6.17
43.90,8.46,8.46,2.30,2.30,-2.30,-2.14,-2.05,6.16,6.16,6.16
44.33,8.45,8.45,2.30,2.30,-2.30,-2.14,-2.05,6.15,6.15,6.15
44.78,8.43,8.43,2.29,2.29,-2.29,-2.15,-2.04,6.14,6.14,6.14
45.23,8.42,8.42,2.29,2.29,-2.29,-2.16,-2.04,6.13,6.13,6.13
45.68,8.40,8.40,2.28,2.29,-2.29,-2.16,-2.03,6.12,6.12,6.12
46.13,8.39,8.39,2.29,2.28,-2.28,-2.17,-2.03,6.11,6.11,6.11
46.60,8.37,8.37,2.28,2.28,-2.28,-2.18,-2.03,6.09,6.09,6.09
47.06,8.35,8.35,2.27,2.27,-2.27,-2.19,-2.03,6.08,6.08,6.08
47.53,8.33,8.33,2.27,2.27,-2.27,-2.19,-2.04,6.06,6.06,6.07
48.01,8.31,8.31,2.26,2.26,-2.26,-2.20,-2.04,6.05,6.05,6.05
48.49,8.29,8.29,2.25,2.25,-2.26,-2.21,-2.05,6.04,6.04,6.04
48.97,8.27,8.27,2.25,2.25,-2.25,-2.22,-2.06,6.02,6.02,6.02
49.46,8.25,8.25,2.25,2.25,-2.25,-2.22,-2.06,6.00,6.00,6.01
49.96,8.23,8.23,2.24,2.24,-2.24,-2.23,-2.07,5.99,5.99,5.99
50.46,8.21,8.21,2.24,2.24,-2.24,-2.24,-2.09,5.97,5.97,5.97
50.96,8.19,8.19,2.24,2.24,-2.24,-2.25,-2.10,5.96,5.96,5.95
51.47,8.17,8.17,2.23,2.23,-2.23,-2.26,-2.11,5.94,5.94,5.94
51.99,8.15,8.15,2.23,2.23,-2.23,-2.26,-2.12,5.92,5.92,5.92
52.51,8.12,8.12,2.22,2.23,-2.22,-2.27,-2.14,5.90,5.90,5.90
53.03,8.10,8.10,2.22,2.22,-2.22,-2.28,-2.15,5.88,5.88,5.88
53.56,8.07,8.07,2.21,2.22,-2.22,-2.29,-2.17,5.85,5.86,5.86
54.10,8.05,8.05,2.21,2.21,-2.22,-2.30,-2.19,5.84,5.84,5.84
54.64,8.03,8.03,2.22,2.21,-2.21,-2.31,-2.20,5.82,5.81,5.81
55.18,8.00,8.00,2.21,2.21,-2.21,-2.32,-2.22,5.79,5.79,5.79
55.74,7.98,7.98,2.21,2.21,-2.21,-2.32,-2.23,5.77,5.77,5.77
56.29,7.95,7.95,2.21,2.21,-2.21,-2.33,-2.25,5.74,5.74,5.74
56.86,7.93,7.93,2.21,2.21,-2.21,-2.34,-2.27,5.72,5.72,5.72
57.42,7.90,7.90,2.21,2.21,-2.21,-2.35,-2.28,5.69,5.69,5.69
58.00,7.87,7.87,2.20,2.21,-2.21,-2.36,-2.30,5.66,5.67,5.67
58.58,7.85,7.85,2.21,2.21,-2.21,-2.37,-2.31,5.64,5.64,5.64
59.16,7.82,7.82,2.21,2.21,-2.21,-2.38,-2.33,5.61,5.61,5.61
59.76,7.79,7.79,2.21,2.21,-2.21,-2.39,-2.34,5.58,5.58,5.58
60.35,7.76,7.76,2.21,2.21,-2.21,-2.40,-2.35,5.55,5.55,5.55
60.96,7.73,7.73,2.21,2.21,-2.21,-2.41,-2.36,5.52,5.52,5.52
61.57,7.70,7.70,2.21,2.21,-2.21,-2.42,-2.37,5.49,5.49,5.49
62.18,7.67,7.67,2.21,2.21,-2.21,-2.43,-2.38,5.46,5.46,5.46
62.80,7.64,7.64,2.21,2.21,-2.21,-2.44,-2.39,5.43,5.43,5.43
63.43,7.61,7.61,2.22,2.22,-2.22,-2.45,-2.39,5.39,5.39,5.39
64.07,7.58,7.58,2.22,2.22,-2.22,-2.46,-2.40,5.36,5.36,5.36
64.71,7.55,7.55,2.23,2.23,-2.23,-2.47,-2.40,5.32,5.32,5.32
65.35,7.51,7.51,2.23,2.23,-2.23,-2.48,-2.41,5.28,5.28,5.28
66.01,7.48,7.48,2.24,2.24,-2.24,-2.49,-2.41,5.24,5.24,5.25
66.67,7.45,7.45,2.24,2.24,-2.25,-2.50,-2.41,5.21,5.21,5.21
67.33,7.42,7.42,2.25,2.25,-2.25,-2.51,-2.41,5.17,5.17,5.17
68.01,7.39,7.39,2.27,2.26,-2.26,-2.52,-2.41,5.13,5.13,5.13
68.69,7.35,7.35,2.27,2.27,-2.27,-2.53,-2.41,5.08,5.08,5.08
69.37,7.32,7.32,2.28,2.28,-2.28,-2.54,-2.41,5.04,5.04,5.04
70.07,7.29,7.29,2.29,2.29,-2.29,-2.56,-2.41,5.00,5.00,5.00
70.77,7.25,7.25,2.30,2.30,-2.30,-2.57,-2.41,4.95,4.95,4.95
71.48,7.22,7.22,2.32,2.31,-2.31,-2.58,-2.41,4.91,4.90,4.90
72.19,7.18,7.18,2.32,2.33,-2.33,-2.59,-2.41,4.85,4.86,4.86
72.91,7.15,7.15,2.34,2.34,-2.34,-2.60,-2.42,4.81,4.81,4.81
73.64,7.11,7.11,2.35,2.35,-2.35,-2.61,-2.42,4.76,4.76,4.76
74.38,7.08,7.08,2.37,2.37,-2.37,-2.62,-2.42,4.71,4.71,4.71
75.12,7.04,7.04,2.38,2.38,-2.38,-2.64,-2.42,4.66,4.66,4.66
75.87,7.01,7.01,2.40,2.40,-2.40,-2.65,-2.43,4.61,4.61,4.61
76.63,6.97,6.97,2.42,2.42,-2.42,-2.66,-2.43,4.55,4.55,4.55
77.40,6.93,6.93,2.43,2.44,-2.44,-2.67,-2.44,4.50,4.50,4.50
78.17,6.90,6.90,2.46,2.45,-2.45,-2.69,-2.44,4.45,4.44,4.44
78.95,6.86,6.86,2.47,2.47,-2.47,-2.70,-2.45,4.39,4.39,4.39
79.74,6.82,6.82,2.49,2.49,-2.49,-2.71,-2.46,4.33,4.33,4.33
80.54,6.78,6.78,2.51,2.51,-2.51,-2.72,-2.48,4.27,4.27,4.27
81.35,6.75,6.75,2.54,2.54,-2.53,-2.74,-2.49,4.22,4.21,4.21
82.16,6.71,6.71,2.56,2.56,-2.56,-2.75,-2.51,4.15,4.15,4.15
82.98,6.67,6.67,2.58,2.58,-2.58,-2.76,-2.52,4.09,4.09,4.09
83.81,6.63,6.63,2.60,2.60,-2.60,-2.78,-2.54,4.03,4.03,4.03
84.65,6.59,6.59,2.62,2.63,-2.63,-2.79,-2.56,3.96,3.96,3.97
85.50,6.56,6.56,2.66,2.65,-2.65,-2.80,-2.59,3.91,3.90,3.90
86.35,6.52,6.52,2.68,2.68,-2.68,-2.82,-2.61,3.84,3.84,3.84
87.22,6.48,6.48,2.71,2.71,-2.71,-2.83,-2.64,3.77,3.78,3.77
88.09,6.44,6.44,2.73,2.73,-2.73,-2.85,-2.67,3.71,3.71,3.71
88.97,6.40,6.40,2.76,2.76,-2.76,-2.86,-2.70,3.64,3.64,3.64
89.86,6.36,6.36,2.79,2.79,-2.79,-2.88,-2.73,3.57,3.57,3.57
90.76,6.32,6.32,2.82,2.82,-2.82,-2.89,-2.77,3.50,3.50,3.51
91.66,6.28,6.28,2.84,2.84,-2.84,-2.91,-2.81,3.44,3.44,3.44
92.58,6.24,6.24,2.87,2.87,-2.87,-2.92,-2.85,3.37,3.37,3.37
93.51,6.20,6.20,2.90,2.90,-2.90,-2.94,-2.89,3.30,3.30,3.30
94.44,6.16,6.16,2.93,2.93,-2.93,-2.96,-2.93,3.23,3.23,3.23
95.39,6.12,6.12,2.96,2.96,-2.96,-2.97,-2.98,3.16,3.16,3.16
96.34,6.08,6.08,3.00,3.00,-3.00,-2.99,-3.02,3.09,3.09,3.09
97.30,6.04,6.04,3.03,3.03,-3.03,-3.01,-3.07,3.01,3.01,3.01
98.28,6.00,6.00,3.06,3.06,-3.06,-3.02,-3.12,2.94,2.94,2.94
99.26,5.96,5.96,3.09,3.09,-3.09,-3.04,-3.17,2.87,2.87,2.87
100.25,5.92,5.92,3.12,3.12,-3.12,-3.06,-3.22,2.80,2.80,2.80
101.25,5.88,5.88,3.16,3.16,-3.16,-3.08,-3.28,2.72,2.72,2.72
102.27,5.84,5.84,3.19,3.19,-3.19,-3.10,-3.33,2.65,2.65,2.65
103.29,5.80,5.80,3.22,3.22,-3.22,-3.11,-3.39,2.58,2.58,2.58
104.32,5.76,5.76,3.25,3.26,-3.26,-3.13,-3.44,2.51,2.51,2.51
105.37,5.72,5.72,3.29,3.29,-3.29,-3.15,-3.50,2.43,2.43,2.43
106.42,5.68,5.68,3.32,3.32,-3.32,-3.17,-3.55,2.36,2.36,2.36
107.48,5.64,5.64,3.35,3.35,-3.35,-3.19,-3.61,2.29,2.29,2.29
108.56,5.60,5.60,3.39,3.39,-3.39,-3.22,-3.66,2.21,2.21,2.21
109.64,5.56,5.56,3.42,3.42,-3.42,-3.24,-3.71,2.14,2.14,2.14
110.74,5.52,5.52,3.45,3.45,-3.45,-3.26,-3.77,2.07,2.07,2.07
111.85,5.48,5.48,3.48,3.48,-3.49,-3.28,-3.82,2.00,2.00,2.00
112.97,5.44,5.44,3.52,3.52,-3.52,-3.30,-3.86,1.92,1.92,1.92
114.10,5.40,5.40,3.55,3.55,-3.55,-3.32,-3.91,1.85,1.85,1.85
115.24,5.36,5.36,3.58,3.58,-3.58,-3.35,-3.95,1.78,1.78,1.78
116.39,5.32,5.32,3.61,3.61,-3.61,-3.37,-3.99,1.71,1.71,1.71
117.55,5.28,5.28,3.64,3.64,-3.64,-3.39,-4.03,1.64,1.64,1.64
118.73,5.23,5.23,3.66,3.66,-3.67,-3.42,-4.07,1.57,1.57,1.57
119.92,5.19,5.19,3.69,3.69,-3.69,-3.44,-4.09,1.50,1.50,1.50
121.12,5.15,5.15,3.72,3.72,-3.72,-3.47,-4.12,1.43,1.43,1.43
122.33,5.11,5.11,3.75,3.75,-3.75,-3.49,-4.14,1.36,1.36,1.36
123.55,5.07,5.07,3.77,3.77,-3.77,-3.52,-4.16,1.30,1.30,1.30
124.79,5.03,5.03,3.80,3.80,-3.80,-3.54,-4.17,1.23,1.23,1.23
126.03,4.99,4.99,3.83,3.83,-3.83,-3.57,-4.18,1.16,1.16,1.16
127.29,4.95,4.95,3.85,3.85,-3.85,-3.59,-4.19,1.10,1.10,1.10
128.57,4.91,4.91,3.88,3.88,-3.88,-3.62,-4.19,1.03,1.03,1.03
129.85,4.87,4.87,3.90,3.90,-3.90,-3.65,-4.18,0.97,0.97,0.97
131.15,4.83,4.83,3.92,3.92,-3.92,-3.67,-4.18,0.91,0.91,0.91
132.46,4.79,4.79,3.95,3.95,-3.95,-3.70,-4.17,0.84,0.84,0.84
133.79,4.75,4.75,3.97,3.97,-3.97,-3.72,-4.15,0.78,0.78,0.78
135.12,4.71,4.71,3.99,3.99,-3.99,-3.75,-4.13,0.72,0.72,0.72
136.48,4.67,4.67,4.01,4.01,-4.01,-3.78,-4.11,0.66,0.66,0.66
137.84,4.64,4.64,4.04,4.03,-4.03,-3.80,-4.09,0.61,0.60,0.60
139.22,4.60,4.60,4.05,4.05,-4.05,-3.83,-4.07,0.55,0.55,0.55
140.61,4.56,4.56,4.07,4.07,-4.07,-3.86,-4.04,0.49,0.49,0.49
142.02,4.52,4.52,4.09,4.09,-4.09,-3.88,-4.01,0.44,0.44,0.43
143.44,4.48,4.48,4.10,4.10,-4.10,-3.91,-3.98,0.38,0.38,0.38
144.87,4.44,4.44,4.11,4.11,-4.12,-3.93,-3.95,0.33,0.33,0.33
146.32,4.40,4.40,4.13,4.13,-4.13,-3.96,-3.92,0.27,0.27,0.27
147.78,4.36,4.36,4.14,4.14,-4.14,-3.98,-3.89,0.22,0.22,0.22
149.26,4.32,4.32,4.15,4.15,-4.15,-4.01,-3.86,0.17,0.17,0.17
150.75,4.28,4.28,4.16,4.16,-4.16,-4.03,-3.83,0.12,0.12,0.12
152.26,4.25,4.25,4.18,4.17,-4.17,-4.05,-3.80,0.08,0.08,0.07
153.78,4.21,4.21,4.18,4.18,-4.18,-4.07,-3.77,0.03,0.03,0.03
155.32,4.17,4.17,4.19,4.19,-4.19,-4.10,-3.74,-0.02,-0.02,-0.02
156.88,4.13,4.13,4.20,4.20,-4.20,-4.12,-3.72,-0.07,-0.07,-0.07
158.44,4.09,4.09,4.20,4.21,-4.21,-4.14,-3.69,-0.12,-0.11,-0.11
160.03,4.06,4.06,4.21,4.21,-4.22,-4.16,-3.67,-0.16,-0.16,-0.15
161.63,4.02,4.02,4.23,4.22,-4.22,-4.17,-3.65,-0.20,-0.20,-0.21
163.24,3.98,3.99,4.23,4.23,-4.23,-4.19,-3.63,-0.25,-0.24,-0.25
164.88,3.95,3.95,4.24,4.24,-4.23,-4.21,-3.62,-0.28,-0.28,-0.29
166.53,3.91,3.91,4.24,4.24,-4.24,-4.22,-3.61,-0.33,-0.33,-0.33
168.19,3.87,3.87,4.24,4.24,-4.24,-4.24,-3.60,-0.37,-0.37,-0.37
169.87,3.83,3.83,4.23,4.24,-4.24,-4.25,-3.59,-0.41,-0.41,-0.40
171.57,3.80,3.80,4.24,4.24,-4.24,-4.26,-3.58,-0.44,-0.44,-0.44
173.29,3.76,3.76,4.24,4.24,-4.24,-4.27,-3.58,-0.48,-0.47,-0.47
175.02,3.73,3.73,4.24,4.24,-4.24,-4.28,-3.58,-0.50,-0.51,-0.51
176.77,3.69,3.69,4.23,4.23,-4.23,-4.29,-3.58,-0.54,-0.54,-0.54
178.54,3.65,3.65,4.23,4.23,-4.23,-4.29,-3.59,-0.58,-0.58,-0.58
180.32,3.62,3.62,4.23,4.23,-4.23,-4.30,-3.60,-0.61,-0.61,-0.61
182.13,3.58,3.58,4.22,4.22,-4.22,-4.30,-3.61,-0.64,-0.64,-0.64
183.95,3.55,3.55,4.22,4.22,-4.22,-4.30,-3.62,-0.67,-0.67,-0.67
185.79,3.51,3.51,4.21,4.21,-4.21,-4.30,-3.64,-0.70,-0.70,-0.70
187.65,3.48,3.48,4.21,4.20,-4.20,-4.30,-3.66,-0.72,-0.72,-0.73
189.52,3.44,3.44,4.19,4.20,-4.20,-4.30,-3.68,-0.76,-0.75,-0.75
191.42,3.41,3.41,4.19,4.19,-4.19,-4.29,-3.71,-0.78,-0.78,-0.78
193.33,3.37,3.37,4.18,4.18,-4.18,-4.28,-3.73,-0.81,-0.81,-0.81
195.27,3.34,3.34,4.17,4.17,-4.17,-4.27,-3.76,-0.83,-0.83,-0.83
197.22,3.30,3.30,4.16,4.16,-4.16,-4.26,-3.79,-0.86,-0.86,-0.86
199.19,3.27,3.27,4.15,4.15,-4.15,-4.25,-3.82,-0.88,-0.88,-0.88
201.18,3.24,3.24,4.14,4.14,-4.14,-4.23,-3.86,-0.90,-0.90,-0.90
203.19,3.20,3.20,4.12,4.13,-4.13,-4.21,-3.89,-0.93,-0.92,-0.92
205.23,3.17,3.17,4.12,4.12,-4.12,-4.19,-3.93,-0.94,-0.94,-0.95
207.28,3.14,3.14,4.11,4.10,-4.10,-4.17,-3.97,-0.96,-0.97,-0.97
209.35,3.10,3.11,4.09,4.09,-4.09,-4.15,-4.01,-0.99,-0.99,-0.99
211.44,3.07,3.07,4.08,4.08,-4.08,-4.13,-4.04,-1.01,-1.01,-1.01
213.56,3.04,3.04,4.07,4.06,-4.06,-4.10,-4.08,-1.02,-1.03,-1.02
215.69,3.00,3.00,4.04,4.05,-4.05,-4.08,-4.12,-1.05,-1.04,-1.04
217.85,2.97,2.97,4.03,4.03,-4.03,-4.05,-4.16,-1.06,-1.06,-1.06
220.03,2.94,2.94,4.02,4.01,-4.01,-4.02,-4.19,-1.07,-1.08,-1.08
222.23,2.90,2.90,3.99,4.00,-4.00,-4.00,-4.23,-1.10,-1.09,-1.09
224.45,2.87,2.87,3.98,3.98,-3.98,-3.97,-4.26,-1.11,-1.11,-1.11
226.70,2.84,2.84,3.97,3.97,-3.97,-3.94,-4.29,-1.13,-1.13,-1.13
228.96,2.81,2.81,3.95,3.95,-3.95,-3.91,-4.32,-1.14,-1.14,-1.14
231.25,2.78,2.78,3.94,3.93,-3.93,-3.88,-4.34,-1.15,-1.16,-1.15
233.57,2.74,2.74,3.91,3.92,-3.92,-3.85,-4.37,-1.18,-1.17,-1.17
235.90,2.71,2.71,3.90,3.90,-3.90,-3.83,-4.38,-1.19,-1.19,-1.19
238.26,2.68,2.68,3.89,3.88,-3.88,-3.80,-4.40,-1.20,-1.20,-1.21
240.64,2.65,2.65,3.87,3.87,-3.87,-3.78,-4.41,-1.22,-1.21,-1.22
243.05,2.62,2.62,3.85,3.85,-3.85,-3.75,-4.41,-1.23,-1.23,-1.23
245.48,2.59,2.59,3.83,3.83,-3.83,-3.73,-4.41,-1.24,-1.24,-1.24
247.93,2.55,2.55,3.80,3.81,-3.81,-3.71,-4.40,-1.26,-1.25,-1.25
250.41,2.52,2.52,3.78,3.79,-3.79,-3.69,-4.39,-1.27,-1.27,-1.26
252.92,2.49,2.49,3.77,3.76,-3.77,-3.68,-4.38,-1.28,-1.28,-1.27
255.45,2.46,2.46,3.75,3.75,-3.75,-3.66,-4.35,-1.29,-1.29,-1.28
258.00,2.43,2.43,3.73,3.73,-3.72,-3.64,-4.33,-1.29,-1.29,-1.29
260.58,2.40,2.40,3.70,3.70,-3.70,-3.63,-4.29,-1.30,-1.30,-1.30
263.19,2.37,2.37,3.68,3.68,-3.68,-3.62,-4.26,-1.31,-1.31,-1.31
265.82,2.34,2.34,3.66,3.66,-3.66,-3.60,-4.22,-1.32,-1.32,-1.32
268.48,2.31,2.31,3.64,3.64,-3.64,-3.59,-4.17,-1.33,-1.33,-1.33
271.16,2.28,2.28,3.62,3.62,-3.62,-3.58,-4.12,-1.34,-1.34,-1.34
273.87,2.25,2.25,3.60,3.60,-3.60,-3.56,-4.07,-1.35,-1.35,-1.35
276.61,2.22,2.22,3.58,3.58,-3.57,-3.55,-4.01,-1.35,-1.35,-1.35
279.38,2.19,2.19,3.55,3.55,-3.55,-3.54,-3.96,-1.36,-1.36,-1.36
282.17,2.16,2.16,3.53,3.53,-3.52,-3.52,-3.89,-1.36,-1.36,-1.37
284.99,2.13,2.13,3.50,3.50,-3.50,-3.51,-3.83,-1.37,-1.37,-1.37
287.84,2.10,2.10,3.46,3.47,-3.47,-3.49,-3.77,-1.37,-1.37,-1.36
290.72,2.07,2.07,3.44,3.44,-3.44,-3.47,-3.70,-1.37,-1.37,-1.37
293.63,2.04,2.04,3.42,3.41,-3.41,-3.46,-3.63,-1.37,-1.37,-1.38
296.57,2.01,2.01,3.38,3.38,-3.38,-3.44,-3.56,-1.37,-1.37,-1.37
299.53,1.98,1.98,3.35,3.35,-3.35,-3.41,-3.49,-1.37,-1.37,-1.37
302.53,1.95,1.95,3.32,3.32,-3.32,-3.39,-3.43,-1.37,-1.37,-1.37
305.55,1.92,1.92,3.29,3.29,-3.29,-3.37,-3.36,-1.37,-1.37,-1.37
308.61,1.89,1.89,3.26,3.26,-3.26,-3.34,-3.29,-1.37,-1.37,-1.37
311.69,1.86,1.86,3.23,3.23,-3.23,-3.32,-3.22,-1.37,-1.37,-1.37
314.81,1.83,1.83,3.20,3.20,-3.20,-3.29,-3.16,-1.37,-1.37,-1.37
317.96,1.80,1.80,3.17,3.17,-3.17,-3.26,-3.09,-1.37,-1.37,-1.37
321.14,1.77,1.77,3.14,3.14,-3.14,-3.23,-3.03,-1.37,-1.37,-1.37
324.35,1.74,1.74,3.11,3.11,-3.11,-3.19,-2.96,-1.37,-1.37,-1.37
327.59,1.71,1.71,3.07,3.07,-3.08,-3.16,-2.90,-1.36,-1.36,-1.36
330.87,1.68,1.68,3.04,3.04,-3.04,-3.12,-2.84,-1.36,-1.36,-1.36
334.18,1.65,1.65,3.01,3.01,-3.01,-3.08,-2.78,-1.36,-1.36,-1.36
337.52,1.62,1.62,2.98,2.98,-2.98,-3.04,-2.73,-1.36,-1.36,-1.36
340.90,1.59,1.59,2.95,2.94,-2.94,-3.00,-2.67,-1.35,-1.35,-1.35
344.30,1.56,1.56,2.91,2.91,-2.91,-2.96,-2.62,-1.35,-1.35,-1.35
347.75,1.53,1.53,2.87,2.87,-2.88,-2.92,-2.57,-1.34,-1.34,-1.34
351.23,1.50,1.50,2.85,2.84,-2.84,-2.88,-2.52,-1.34,-1.34,-1.34
354.74,1.47,1.47,2.80,2.80,-2.81,-2.83,-2.47,-1.33,-1.33,-1.33
358.28,1.44,1.44,2.77,2.77,-2.77,-2.79,-2.43,-1.33,-1.33,-1.33
361.87,1.41,1.41,2.73,2.73,-2.73,-2.74,-2.38,-1.32,-1.32,-1.32
365.49,1.38,1.38,2.70,2.70,-2.70,-2.70,-2.34,-1.32,-1.32,-1.32
369.14,1.35,1.35,2.67,2.66,-2.66,-2.65,-2.30,-1.31,-1.31,-1.32
372.83,1.32,1.32,2.62,2.63,-2.63,-2.61,-2.26,-1.31,-1.31,-1.30
376.56,1.29,1.29,2.59,2.59,-2.59,-2.56,-2.23,-1.30,-1.30,-1.30
380.33,1.26,1.26,2.56,2.56,-2.56,-2.52,-2.19,-1.30,-1.30,-1.30
384.13,1.23,1.23,2.53,2.53,-2.52,-2.47,-2.16,-1.29,-1.29,-1.30
387.97,1.20,1.20,2.49,2.49,-2.49,-2.42,-2.13,-1.29,-1.29,-1.29
391.85,1.17,1.17,2.44,2.45,-2.45,-2.38,-2.10,-1.28,-1.28,-1.27
395.77,1.14,1.14,2.42,2.41,-2.42,-2.34,-2.07,-1.27,-1.27,-1.28
399.73,1.11,1.11,2.38,2.38,-2.38,-2.29,-2.05,-1.27,-1.27,-1.27
403.72,1.08,1.08,2.34,2.34,-2.34,-2.25,-2.02,-1.26,-1.26,-1.26
407.76,1.05,1.05,2.31,2.31,-2.31,-2.20,-2.00,-1.26,-1.26,-1.26
411.84,1.02,1.02,2.27,2.27,-2.27,-2.16,-1.97,-1.25,-1.25,-1.25
415.96,0.99,0.99,2.24,2.24,-2.24,-2.12,-1.95,-1.25,-1.25,-1.24
420.12,0.96,0.96,2.21,2.20,-2.20,-2.08,-1.93,-1.24,-1.24,-1.25
424.32,0.93,0.93,2.17,2.17,-2.17,-2.04,-1.91,-1.24,-1.24,-1.24
428.56,0.90,0.90,2.13,2.13,-2.13,-2.00,-1.89,-1.23,-1.23,-1.23
432.85,0.87,0.87,2.09,2.09,-2.10,-1.96,-1.87,-1.22,-1.22,-1.22
437.18,0.84,0.84,2.06,2.06,-2.06,-1.92,-1.86,-1.22,-1.22,-1.22
441.55,0.81,0.81,2.02,2.02,-2.02,-1.88,-1.84,-1.21,-1.21,-1.21
445.96,0.78,0.78,1.99,1.98,-1.98,-1.84,-1.82,-1.20,-1.20,-1.20
450.42,0.75,0.75,1.94,1.94,-1.94,-1.81,-1.80,-1.19,-1.19,-1.19
454.93,0.72,0.72,1.90,1.90,-1.90,-1.77,-1.79,-1.18,-1.18,-1.18
459.48,0.69,0.69,1.86,1.86,-1.86,-1.74,-1.77,-1.17,-1.17,-1.17
464.07,0.66,0.66,1.83,1.82,-1.82,-1.70,-1.75,-1.16,-1.17,-1.17
468.71,0.62,0.62,1.78,1.78,-1.78,-1.67,-1.73,-1.16,-1.16,-1.16
473.40,0.59,0.59,1.74,1.74,-1.74,-1.63,-1.72,-1.15,-1.15,-1.15
478.13,0.56,0.56,1.70,1.70,-1.70,-1.60,-1.70,-1.14,-1.14,-1.14
482.91,0.53,0.53,1.66,1.66,-1.67,-1.57,-1.68,-1.13,-1.13,-1.13
487.74,0.50,0.50,1.63,1.63,-1.63,-1.53,-1.66,-1.12,-1.12,-1.12
492.62,0.47,0.47,1.59,1.59,-1.59,-1.50,-1.64,-1.11,-1.11,-1.12
497.55,0.44,0.44,1.55,1.55,-1.54,-1.47,-1.62,-1.10,-1.10,-1.11
502.52,0.41,0.41,1.51,1.50,-1.50,-1.44,-1.60,-1.09,-1.09,-1.10
507.55,0.38,0.38,1.46,1.46,-1.46,-1.41,-1.57,-1.08,-1.08,-1.08
512.62,0.35,0.35,1.42,1.42,-1.42,-1.38,-1.55,-1.07,-1.07,-1.07
