frequency,raw,smoothed,error,error_smoothed,equalization,parametric_eq,fixed_band_eq,equalized_raw,equalized_smoothed,target
20.00,8.97,8.97,3.94,3.93,-3.94,-3.71,-1.99,5.03,5.03,5.04
20.20,8.97,8.98,3.91,3.91,-3.92,-3.73,-2.05,5.06,5.06,5.06
20.40,8.98,8.99,3.89,3.89,-3.90,-3.74,-2.10,5.09,5.09,5.09
20.61,9.00,9.00,3.89,3.88,-3.88,-3.75,-2.16,5.12,5.12,5.11
20.81,9.02,9.02,3.88,3.88,-3.87,-3.76,-2.22,5.15,5.15,5.14
21.02,9.04,9.04,3.87,3.87,-3.86,-3.78,-2.29,5.18,5.18,5.17
21.23,9.05,9.05,3.87,3.86,-3.86,-3.79,-2.35,5.20,5.19,5.18
21.44,9.05,9.05,3.86,3.86,-3.86,-3.80,-2.42,5.20,5.20,5.19
21.66,9.05,9.05,3.85,3.86,-3.86,-3.82,-2.49,5.20,5.20,5.20
21.87,9.06,9.06,3.86,3.86,-3.86,-3.83,-2.56,5.20,5.20,5.20
22.09,9.07,9.07,3.86,3.86,-3.87,-3.84,-2.64,5.20,5.20,5.21
22.31,9.09,9.09,3.88,3.88,-3.89,-3.86,-2.71,5.20,5.20,5.21
22.54,9.11,9.11,3.90,3.90,-3.91,-3.87,-2.79,5.20,5.20,5.21
22.76,9.14,9.14,3.93,3.94,-3.94,-3.88,-2.87,5.20,5.20,5.21
22.99,9.17,9.17,3.97,3.97,-3.97,-3.90,-2.95,5.21,5.21,5.20
23.22,9.20,9.20,4.00,4.01,-3.99,-3.91,-3.03,5.21,5.21,5.20
23.45,9.23,9.23,4.04,4.03,-4.02,-3.93,-3.12,5.21,5.21,5.20
23.69,9.25,9.25,4.06,4.05,-4.04,-3.94,-3.20,5.21,5.21,5.20
23.92,9.26,9.27,4.07,4.07,-4.06,-3.96,-3.29,5.20,5.21,5.19
24.16,9.28,9.28,4.08,4.08,-4.08,-3.97,-3.38,5.20,5.20,5.20
24.40,9.29,9.29,4.09,4.09,-4.10,-3.99,-3.47,5.19,5.19,5.20
24.65,9.30,9.31,4.11,4.11,-4.12,-4.01,-3.56,5.18,5.18,5.19
24.89,9.33,9.33,4.14,4.14,-4.15,-4.02,-3.66,5.18,5.18,5.19
25.14,9.36,9.36,4.17,4.17,-4.18,-4.04,-3.75,5.18,5.18,5.19
25.39,9.39,9.40,4.20,4.21,-4.21,-4.06,-3.85,5.18,5.18,5.19
25.65,9.43,9.43,4.24,4.25,-4.24,-4.07,-3.94,5.19,5.19,5.19
25.91,9.47,9.47,4.29,4.29,-4.27,-4.09,-4.04,5.20,5.19,5.18
26.16,9.49,9.49,4.32,4.32,-4.30,-4.11,-4.14,5.20,5.20,5.18
26.43,9.51,9.51,4.34,4.33,-4.31,-4.12,-4.23,5.20,5.19,5.17
26.69,9.51,9.51,4.34,4.34,-4.33,-4.14,-4.33,5.18,5.18,5.17
26.96,9.51,9.51,4.34,4.34,-4.34,-4.16,-4.42,5.17,5.17,5.17
27.23,9.51,9.51,4.34,4.34,-4.35,-4.18,-4.51,5.16,5.16,5.17
27.50,9.51,9.51,4.34,4.35,-4.37,-4.20,-4.60,5.15,5.15,5.17
27.77,9.52,9.52,4.36,4.36,-4.38,-4.22,-4.69,5.14,5.15,5.16
28.05,9.54,9.54,4.38,4.39,-4.40,-4.23,-4.77,5.15,5.15,5.16
28.33,9.57,9.57,4.43,4.42,-4.41,-4.25,-4.85,5.16,5.16,5.15
28.62,9.59,9.59,4.45,4.45,-4.43,-4.27,-4.93,5.16,5.16,5.14
28.90,9.61,9.61,4.47,4.47,-4.46,-4.29,-5.00,5.16,5.15,5.14
29.19,9.62,9.62,4.49,4.48,-4.48,-4.31,-5.07,5.14,5.14,5.13
29.48,9.63,9.63,4.49,4.50,-4.51,-4.33,-5.13,5.13,5.13,5.14
29.78,9.64,9.64,4.51,4.51,-4.53,-4.35,-5.18,5.11,5.11,5.13
30.08,9.66,9.66,4.54,4.54,-4.55,-4.37,-5.23,5.11,5.11,5.13
30.38,9.68,9.69,4.57,4.57,-4.57,-4.39,-5.28,5.11,5.12,5.11
30.68,9.71,9.71,4.60,4.60,-4.59,-4.41,-5.31,5.12,5.12,5.11
30.99,9.73,9.73,4.63,4.62,-4.60,-4.43,-5.34,5.13,5.12,5.10
31.30,9.73,9.73,4.63,4.63,-4.62,-4.45,-5.37,5.11,5.11,5.10
31.61,9.73,9.73,4.64,4.64,-4.64,-4.47,-5.38,5.09,5.09,5.09
31.93,9.72,9.73,4.64,4.64,-4.66,-4.50,-5.39,5.06,5.07,5.08
32.24,9.73,9.73,4.66,4.65,-4.68,-4.52,-5.40,5.05,5.05,5.07
32.57,9.74,9.75,4.67,4.68,-4.71,-4.54,-5.39,5.03,5.04,5.07
32.89,9.77,9.78,4.71,4.71,-4.73,-4.56,-5.38,5.04,5.05,5.06
33.22,9.81,9.81,4.76,4.76,-4.75,-4.58,-5.37,5.06,5.06,5.05
33.55,9.85,9.84,4.80,4.80,-4.77,-4.60,-5.35,5.08,5.08,5.05
33.89,9.86,9.86,4.83,4.82,-4.78,-4.62,-5.32,5.08,5.08,5.04
34.23,9.84,9.84,4.81,4.81,-4.79,-4.64,-5.29,5.05,5.05,5.03
34.57,9.81,9.81,4.79,4.79,-4.79,-4.66,-5.25,5.02,5.02,5.02
34.92,9.77,9.78,4.76,4.77,-4.79,-4.69,-5.22,4.98,4.99,5.01
35.27,9.75,9.75,4.75,4.75,-4.78,-4.71,-5.18,4.97,4.97,5.00
35.62,9.74,9.74,4.75,4.75,-4.77,-4.73,-5.13,4.97,4.97,4.99
35.97,9.74,9.74,4.76,4.76,-4.76,-4.75,-5.09,4.98,4.98,4.98
36.33,9.74,9.74,4.77,4.77,-4.76,-4.77,-5.04,4.98,4.98,4.97
36.70,9.73,9.73,4.77,4.77,-4.76,-4.79,-4.99,4.98,4.97,4.96
37.06,9.71,9.71,4.77,4.76,-4.76,-4.81,-4.95,4.96,4.96,4.94
37.43,9.69,9.70,4.75,4.76,-4.76,-4.83,-4.90,4.93,4.94,4.94
37.81,9.68,9.68,4.76,4.75,-4.76,-4.85,-4.85,4.92,4.92,4.93
38.19,9.67,9.67,4.76,4.75,-4.76,-4.86,-4.80,4.91,4.91,4.91
38.57,9.66,9.66,4.75,4.76,-4.77,-4.88,-4.76,4.89,4.89,4.91
38.95,9.65,9.65,4.76,4.76,-4.77,-4.90,-4.71,4.88,4.88,4.89
39.34,9.65,9.65,4.77,4.77,-4.78,-4.92,-4.67,4.87,4.87,4.88
39.74,9.66,9.66,4.80,4.80,-4.79,-4.93,-4.63,4.87,4.87,4.86
40.14,9.66,9.66,4.80,4.81,-4.79,-4.95,-4.59,4.87,4.87,4.86
40.54,9.67,9.66,4.83,4.82,-4.80,-4.96,-4.55,4.87,4.86,4.84
40.94,9.64,9.64,4.81,4.81,-4.80,-4.97,-4.52,4.84,4.84,4.84
41.35,9.62,9.62,4.80,4.80,-4.80,-4.98,-4.49,4.82,4.82,4.82
41.76,9.59,9.60,4.78,4.79,-4.80,-4.99,-4.46,4.79,4.80,4.81
42.18,9.59,9.59,4.79,4.79,-4.80,-5.00,-4.43,4.79,4.79,4.81
42.60,9.59,9.59,4.80,4.80,-4.80,-5.01,-4.41,4.79,4.79,4.79
43.03,9.60,9.60,4.82,4.82,-4.81,-5.01,-4.39,4.79,4.78,4.78
43.46,9.59,9.59,4.83,4.83,-4.83,-5.02,-4.37,4.76,4.76,4.77
43.90,9.58,9.58,4.84,4.84,-4.85,-5.02,-4.36,4.73,4.73,4.74
44.33,9.57,9.58,4.85,4.86,-4.87,-5.02,-4.35,4.70,4.71,4.72
44.78,9.58,9.59,4.88,4.88,-4.90,-5.01,-4.35,4.69,4.69,4.70
45.23,9.60,9.60,4.92,4.92,-4.92,-5.01,-4.34,4.68,4.68,4.68
45.68,9.62,9.61,4.96,4.95,-4.93,-5.00,-4.34,4.69,4.68,4.67
46.13,9.61,9.61,4.97,4.96,-4.95,-4.98,-4.34,4.67,4.66,4.65
46.60,9.59,9.59,4.95,4.96,-4.95,-4.97,-4.35,4.64,4.64,4.64
47.06,9.56,9.57,4.94,4.95,-4.94,-4.94,-4.36,4.62,4.62,4.62
47.53,9.53,9.53,4.93,4.93,-4.93,-4.92,-4.37,4.60,4.60,4.60
48.01,9.49,9.49,4.90,4.91,-4.91,-4.89,-4.39,4.58,4.58,4.59
48.49,9.43,9.43,4.88,4.87,-4.88,-4.85,-4.40,4.55,4.54,4.56
48.97,9.35,9.35,4.83,4.82,-4.85,-4.81,-4.42,4.50,4.50,4.53
49.46,9.26,9.27,4.77,4.77,-4.80,-4.76,-4.45,4.47,4.47,4.49
49.96,9.18,9.19,4.72,4.72,-4.72,-4.70,-4.47,4.46,4.47,4.46
50.46,9.11,9.12,4.66,4.67,-4.63,-4.64,-4.50,4.48,4.48,4.45
50.96,9.02,9.01,4.59,4.59,-4.52,-4.57,-4.53,4.50,4.49,4.43
51.47,8.88,8.85,4.49,4.46,-4.40,-4.49,-4.56,4.48,4.45,4.39
51.99,8.64,8.65,4.27,4.27,-4.26,-4.41,-4.60,4.38,4.38,4.37
52.51,8.41,8.43,4.06,4.08,-4.11,-4.32,-4.63,4.30,4.32,4.36
53.03,8.21,8.24,3.88,3.91,-3.95,-4.21,-4.67,4.26,4.29,4.33
53.56,8.10,8.09,3.79,3.78,-3.79,-4.10,-4.71,4.31,4.29,4.31
54.10,7.95,7.93,3.67,3.65,-3.64,-3.99,-4.75,4.31,4.29,4.28
54.64,7.78,7.77,3.53,3.52,-3.50,-3.86,-4.79,4.28,4.27,4.26
55.18,7.58,7.61,3.35,3.38,-3.39,-3.73,-4.83,4.19,4.22,4.23
55.74,7.46,7.47,3.26,3.26,-3.29,-3.60,-4.87,4.17,4.18,4.20
56.29,7.37,7.36,3.19,3.18,-3.21,-3.47,-4.91,4.16,4.16,4.19
56.86,7.29,7.29,3.14,3.13,-3.14,-3.34,-4.95,4.16,4.15,4.16
57.42,7.22,7.22,3.09,3.09,-3.08,-3.22,-4.99,4.15,4.14,4.13
58.00,7.15,7.16,3.04,3.05,-3.03,-3.10,-5.03,4.12,4.13,4.11
58.58,7.11,7.11,3.02,3.02,-3.00,-3.01,-5.06,4.11,4.11,4.09
59.16,7.07,7.06,3.00,2.99,-2.98,-2.93,-5.10,4.09,4.08,4.07
59.76,7.02,7.03,2.97,2.98,-2.98,-2.89,-5.13,4.04,4.05,4.05
60.35,7.00,7.00,2.99,2.98,-3.00,-2.87,-5.17,4.01,4.01,4.02
60.96,7.00,7.00,3.01,3.01,-3.03,-2.90,-5.20,3.97,3.97,3.99
61.57,7.02,7.02,3.07,3.07,-3.09,-2.95,-5.23,3.93,3.93,3.95
62.18,7.06,7.07,3.15,3.15,-3.17,-3.05,-5.25,3.89,3.89,3.92
62.80,7.14,7.15,3.25,3.26,-3.28,-3.17,-5.28,3.87,3.88,3.89
63.43,7.26,7.26,3.41,3.40,-3.40,-3.34,-5.30,3.87,3.87,3.86
64.07,7.40,7.39,3.57,3.56,-3.53,-3.52,-5.32,3.87,3.86,3.83
64.71,7.51,7.51,3.71,3.71,-3.68,-3.73,-5.34,3.83,3.83,3.80
65.35,7.63,7.63,3.86,3.85,-3.84,-3.96,-5.35,3.79,3.79,3.78
66.01,7.74,7.75,3.99,4.00,-4.01,-4.20,-5.37,3.73,3.75,3.75
66.67,7.89,7.89,4.17,4.17,-4.18,-4.44,-5.38,3.71,3.70,3.72
67.33,8.04,8.04,4.35,4.35,-4.36,-4.69,-5.40,3.68,3.67,3.69
68.01,8.19,8.20,4.53,4.54,-4.55,-4.94,-5.41,3.64,3.65,3.66
68.69,8.37,8.37,4.74,4.75,-4.74,-5.18,-5.42,3.63,3.63,3.63
69.37,8.56,8.56,4.97,4.96,-4.94,-5.42,-5.43,3.62,3.61,3.60
70.07,8.74,8.74,5.18,5.17,-5.15,-5.64,-5.44,3.59,3.58,3.56
70.77,8.91,8.91,5.37,5.37,-5.37,-5.87,-5.45,3.54,3.54,3.54
71.48,9.07,9.08,5.57,5.57,-5.59,-6.08,-5.46,3.48,3.49,3.51
72.19,9.25,9.26,5.78,5.79,-5.81,-6.28,-5.47,3.44,3.45,3.47
72.91,9.46,9.46,6.03,6.03,-6.04,-6.48,-5.49,3.43,3.43,3.43
73.64,9.68,9.67,6.29,6.27,-6.26,-6.66,-5.50,3.42,3.41,3.40
74.38,9.87,9.87,6.50,6.50,-6.49,-6.84,-5.52,3.38,3.38,3.37
75.12,10.04,10.05,6.71,6.72,-6.71,-7.01,-5.54,3.33,3.34,3.33
75.87,10.23,10.23,6.93,6.93,-6.94,-7.17,-5.56,3.29,3.29,3.30
76.63,10.41,10.41,7.14,7.15,-7.15,-7.32,-5.58,3.26,3.26,3.27
77.40,10.60,10.60,7.36,7.36,-7.36,-7.46,-5.61,3.24,3.24,3.24
78.17,10.77,10.78,7.57,7.57,-7.56,-7.60,-5.64,3.21,3.22,3.20
78.95,10.94,10.94,7.77,7.76,-7.74,-7.73,-5.67,3.20,3.19,3.18
79.74,11.08,11.08,7.94,7.94,-7.92,-7.85,-5.70,3.16,3.16,3.14
80.54,11.20,11.21,8.09,8.10,-8.09,-7.97,-5.75,3.11,3.11,3.11
81.35,11.32,11.32,8.25,8.24,-8.26,-8.08,-5.79,3.06,3.06,3.07
82.16,11.43,11.44,8.39,8.40,-8.41,-8.19,-5.84,3.02,3.03,3.04
82.98,11.55,11.55,8.54,8.55,-8.56,-8.29,-5.89,2.99,3.00,3.01
83.81,11.67,11.66,8.71,8.69,-8.70,-8.38,-5.94,2.97,2.96,2.96
84.65,11.75,11.76,8.82,8.83,-8.83,-8.47,-6.00,2.92,2.93,2.93
85.50,11.84,11.85,8.94,8.96,-8.96,-8.55,-6.07,2.88,2.90,2.90
86.35,11.95,11.93,9.09,9.08,-9.07,-8.64,-6.13,2.88,2.86,2.86
87.22,12.00,12.00,9.18,9.18,-9.18,-8.71,-6.21,2.83,2.83,2.82
88.09,12.05,12.05,9.27,9.27,-9.26,-8.78,-6.28,2.79,2.79,2.78
88.97,12.08,12.08,9.33,9.34,-9.34,-8.85,-6.37,2.75,2.75,2.75
89.86,12.10,12.10,9.40,9.39,-9.39,-8.91,-6.45,2.71,2.71,2.71
90.76,12.09,12.10,9.44,9.44,-9.42,-8.97,-6.55,2.67,2.67,2.65
91.66,12.07,12.08,9.45,9.46,-9.44,-9.02,-6.64,2.63,2.63,2.62
92.58,12.05,12.04,9.48,9.46,-9.45,-9.07,-6.74,2.60,2.59,2.57
93.51,11.98,11.98,9.45,9.45,-9.45,-9.11,-6.85,2.54,2.54,2.53
94.44,11.91,11.91,9.42,9.42,-9.43,-9.15,-6.96,2.48,2.48,2.49
95.39,11.84,11.84,9.40,9.40,-9.42,-9.19,-7.07,2.43,2.43,2.45
96.34,11.77,11.78,9.38,9.39,-9.40,-9.22,-7.19,2.38,2.39,2.39
97.30,11.73,11.72,9.38,9.38,-9.38,-9.25,-7.31,2.35,2.35,2.35
98.28,11.67,11.66,9.37,9.36,-9.36,-9.28,-7.44,2.31,2.30,2.30
99.26,11.60,11.60,9.35,9.35,-9.36,-9.30,-7.57,2.24,2.25,2.26
100.25,11.53,11.55,9.32,9.34,-9.35,-9.31,-7.70,2.18,2.20,2.21
101.25,11.52,11.51,9.36,9.35,-9.35,-9.33,-7.84,2.17,2.16,2.16
102.27,11.48,11.48,9.36,9.36,-9.36,-9.33,-7.98,2.12,2.12,2.12
103.29,11.44,11.44,9.38,9.37,-9.36,-9.34,-8.12,2.08,2.08,2.06
104.32,11.39,11.39,9.37,9.37,-9.37,-9.34,-8.26,2.02,2.02,2.03
105.37,11.35,11.35,9.37,9.37,-9.38,-9.34,-8.40,1.98,1.97,1.98
106.42,11.30,11.31,9.37,9.37,-9.38,-9.33,-8.55,1.92,1.93,1.93
107.48,11.26,11.26,9.38,9.38,-9.38,-9.32,-8.69,1.88,1.88,1.89
108.56,11.21,11.21,9.38,9.38,-9.37,-9.31,-8.83,1.84,1.84,1.83
109.64,11.15,11.15,9.37,9.37,-9.36,-9.29,-8.97,1.79,1.79,1.78
110.74,11.10,11.08,9.36,9.35,-9.35,-9.26,-9.11,1.76,1.74,1.74
111.85,10.99,11.01,9.30,9.32,-9.32,-9.24,-9.24,1.67,1.68,1.69
112.97,10.92,10.93,9.29,9.29,-9.30,-9.21,-9.37,1.63,1.63,1.63
114.10,10.85,10.84,9.27,9.26,-9.26,-9.18,-9.49,1.59,1.58,1.58
115.24,10.75,10.76,9.23,9.23,-9.22,-9.14,-9.59,1.53,1.54,1.53
116.39,10.65,10.65,9.18,9.18,-9.17,-9.10,-9.70,1.48,1.48,1.47
117.55,10.54,10.53,9.12,9.11,-9.12,-9.06,-9.78,1.42,1.41,1.42
118.73,10.41,10.42,9.05,9.05,-9.06,-9.01,-9.86,1.35,1.36,1.36
119.92,10.30,10.31,8.98,9.00,-9.00,-8.96,-9.92,1.30,1.31,1.32
121.12,10.21,10.20,8.94,8.94,-8.94,-8.91,-9.98,1.28,1.27,1.27
122.33,10.11,10.09,8.90,8.87,-8.87,-8.85,-10.00,1.24,1.23,1.22
123.55,9.95,9.97,8.78,8.80,-8.80,-8.80,-10.03,1.16,1.17,1.17
124.79,9.84,9.83,8.72,8.71,-8.72,-8.74,-10.02,1.12,1.11,1.12
126.03,9.69,9.70,8.62,8.63,-8.64,-8.67,-10.01,1.05,1.06,1.07
127.29,9.57,9.58,8.55,8.56,-8.55,-8.61,-9.98,1.02,1.03,1.02
128.57,9.45,9.44,8.49,8.47,-8.45,-8.54,-9.93,1.00,0.99,0.96
129.85,9.29,9.29,8.38,8.38,-8.35,-8.47,-9.86,0.94,0.94,0.91
131.15,9.13,9.12,8.27,8.25,-8.25,-8.40,-9.79,0.88,0.87,0.87
132.46,8.93,8.95,8.11,8.13,-8.15,-8.32,-9.69,0.78,0.80,0.82
133.79,8.79,8.79,8.01,8.02,-8.05,-8.25,-9.59,0.75,0.75,0.78
135.12,8.65,8.65,7.92,7.91,-7.94,-8.17,-9.47,0.71,0.71,0.73
136.48,8.51,8.51,7.82,7.82,-7.83,-8.09,-9.34,0.69,0.69,0.69
137.84,8.37,8.37,7.72,7.73,-7.71,-8.01,-9.20,0.66,0.66,0.65
139.22,8.22,8.22,7.63,7.62,-7.60,-7.92,-9.06,0.63,0.63,0.59
140.61,8.06,8.06,7.51,7.50,-7.48,-7.84,-8.91,0.58,0.58,0.55
142.02,7.89,7.88,7.36,7.36,-7.35,-7.75,-8.75,0.54,0.53,0.53
143.44,7.70,7.70,7.21,7.22,-7.23,-7.67,-8.59,0.48,0.48,0.49
144.87,7.51,7.53,7.06,7.08,-7.09,-7.58,-8.43,0.42,0.44,0.45
146.32,7.37,7.37,6.96,6.95,-6.96,-7.49,-8.26,0.42,0.41,0.41
147.78,7.22,7.21,6.84,6.83,-6.82,-7.40,-8.10,0.40,0.38,0.38
149.26,7.04,7.05,6.70,6.71,-6.70,-7.31,-7.93,0.34,0.35,0.34
150.75,6.88,6.88,6.59,6.58,-6.59,-7.22,-7.76,0.29,0.29,0.29
152.26,6.73,6.73,6.47,6.47,-6.50,-7.13,-7.60,0.24,0.23,0.26
153.78,6.60,6.60,6.38,6.39,-6.41,-7.04,-7.43,0.19,0.19,0.22
155.32,6.49,6.50,6.31,6.31,-6.34,-6.95,-7.27,0.16,0.16,0.18
156.88,6.41,6.41,6.27,6.27,-6.27,-6.85,-7.11,0.14,0.14,0.14
158.44,6.32,6.33,6.22,6.23,-6.21,-6.76,-6.96,0.11,0.12,0.10
160.03,6.25,6.25,6.19,6.19,-6.16,-6.67,-6.80,0.09,0.08,0.06
161.63,6.15,6.14,6.14,6.13,-6.12,-6.58,-6.65,0.03,0.02,0.02
163.24,6.05,6.04,6.08,6.07,-6.07,-6.48,-6.51,-0.02,-0.03,-0.02
164.88,5.92,5.95,5.98,6.01,-6.02,-6.39,-6.36,-0.10,-0.07,-0.05
166.53,5.88,5.87,5.97,5.97,-5.97,-6.30,-6.22,-0.09,-0.09,-0.09
168.19,5.81,5.79,5.94,5.92,-5.91,-6.20,-6.09,-0.10,-0.12,-0.13
169.87,5.70,5.70,5.87,5.87,-5.85,-6.11,-5.96,-0.15,-0.15,-0.17
171.57,5.58,5.57,5.79,5.78,-5.79,-6.02,-5.83,-0.21,-0.22,-0.21
173.29,5.45,5.46,5.69,5.70,-5.72,-5.93,-5.71,-0.27,-0.27,-0.24
175.02,5.31,5.36,5.59,5.64,-5.64,-5.83,-5.59,-0.33,-0.28,-0.28
176.77,5.30,5.26,5.62,5.58,-5.56,-5.74,-5.48,-0.26,-0.30,-0.32
178.54,5.17,5.14,5.54,5.50,-5.46,-5.65,-5.37,-0.29,-0.33,-0.37
180.32,4.96,4.99,5.36,5.39,-5.36,-5.56,-5.26,-0.40,-0.37,-0.40
182.13,4.79,4.81,5.22,5.25,-5.26,-5.47,-5.16,-0.47,-0.45,-0.43
183.95,4.67,4.65,5.15,5.12,-5.16,-5.38,-5.06,-0.49,-0.51,-0.47
185.79,4.53,4.53,5.04,5.04,-5.06,-5.29,-4.96,-0.53,-0.53,-0.51
187.65,4.37,4.40,4.92,4.94,-4.95,-5.20,-4.87,-0.58,-0.56,-0.55
189.52,4.29,4.25,4.87,4.83,-4.85,-5.11,-4.78,-0.55,-0.59,-0.58
191.42,4.12,4.15,4.73,4.76,-4.74,-5.02,-4.70,-0.62,-0.59,-0.61
193.33,4.01,4.04,4.65,4.68,-4.64,-4.93,-4.62,-0.63,-0.59,-0.63
195.27,3.98,3.90,4.64,4.57,-4.54,-4.84,-4.54,-0.56,-0.63,-0.66
197.22,3.74,3.76,4.43,4.45,-4.44,-4.76,-4.46,-0.70,-0.68,-0.69
199.19,3.57,3.61,4.30,4.33,-4.34,-4.67,-4.39,-0.77,-0.73,-0.73
201.18,3.46,3.46,4.21,4.21,-4.24,-4.58,-4.32,-0.78,-0.78,-0.74
203.19,3.40,3.38,4.16,4.14,-4.16,-4.50,-4.26,-0.75,-0.78,-0.76
205.23,3.29,3.30,4.08,4.08,-4.08,-4.41,-4.19,-0.79,-0.78,-0.79
207.28,3.22,3.23,4.01,4.03,-4.02,-4.32,-4.13,-0.80,-0.79,-0.79
209.35,3.16,3.16,3.98,3.98,-3.98,-4.24,-4.07,-0.82,-0.82,-0.82
211.44,3.14,3.12,3.98,3.95,-3.97,-4.15,-4.01,-0.83,-0.85,-0.84
213.56,3.08,3.10,3.93,3.94,-3.97,-4.07,-3.95,-0.89,-0.88,-0.84
215.69,3.09,3.10,3.94,3.96,-3.98,-3.99,-3.90,-0.89,-0.88,-0.85
217.85,3.13,3.13,3.99,3.99,-4.00,-3.90,-3.84,-0.87,-0.87,-0.86
220.03,3.19,3.17,4.06,4.05,-4.02,-3.82,-3.79,-0.83,-0.85,-0.87
222.23,3.20,3.20,4.09,4.08,-4.05,-3.74,-3.74,-0.84,-0.84,-0.88
224.45,3.21,3.21,4.09,4.09,-4.06,-3.66,-3.68,-0.85,-0.85,-0.88
226.70,3.21,3.21,4.09,4.09,-4.07,-3.57,-3.63,-0.86,-0.86,-0.88
228.96,3.20,3.20,4.08,4.07,-4.07,-3.49,-3.58,-0.87,-0.87,-0.88
231.25,3.18,3.18,4.05,4.05,-4.06,-3.41,-3.52,-0.88,-0.88,-0.87
233.57,3.15,3.16,4.02,4.03,-4.04,-3.33,-3.47,-0.88,-0.88,-0.87
235.90,3.13,3.13,4.00,4.00,-4.00,-3.25,-3.42,-0.87,-0.87,-0.87
238.26,3.10,3.09,3.97,3.96,-3.96,-3.17,-3.36,-0.85,-0.86,-0.87
240.64,3.06,3.06,3.92,3.91,-3.91,-3.09,-3.30,-0.84,-0.85,-0.86
243.05,2.99,3.02,3.84,3.86,-3.85,-3.01,-3.24,-0.86,-0.84,-0.84
245.48,2.98,2.96,3.81,3.80,-3.80,-2.93,-3.18,-0.82,-0.84,-0.83
247.93,2.92,2.90,3.74,3.72,-3.74,-2.85,-3.12,-0.82,-0.84,-0.82
250.41,2.81,2.84,3.63,3.65,-3.67,-2.77,-3.06,-0.86,-0.83,-0.82
252.92,2.77,2.79,3.57,3.58,-3.59,-2.69,-3.00,-0.82,-0.80,-0.80
255.45,2.74,2.74,3.52,3.52,-3.51,-2.61,-2.93,-0.76,-0.76,-0.77
258.00,2.72,2.69,3.48,3.45,-3.41,-2.53,-2.86,-0.69,-0.73,-0.76
260.58,2.59,2.60,3.34,3.34,-3.31,-2.45,-2.79,-0.72,-0.71,-0.75
263.19,2.48,2.49,3.21,3.22,-3.22,-2.37,-2.72,-0.73,-0.72,-0.72
265.82,2.39,2.39,3.10,3.10,-3.12,-2.29,-2.64,-0.73,-0.73,-0.71
268.48,2.30,2.31,2.99,2.99,-3.02,-2.21,-2.57,-0.72,-0.72,-0.69
271.16,2.24,2.23,2.90,2.89,-2.93,-2.13,-2.49,-0.69,-0.70,-0.66
273.87,2.16,2.17,2.81,2.81,-2.84,-2.05,-2.41,-0.68,-0.68,-0.65
276.61,2.09,2.11,2.72,2.74,-2.75,-1.97,-2.33,-0.66,-0.64,-0.62
279.38,2.08,2.07,2.69,2.67,-2.66,-1.88,-2.25,-0.58,-0.59,-0.61
282.17,2.01,2.01,2.61,2.60,-2.56,-1.80,-2.17,-0.55,-0.55,-0.59
284.99,1.93,1.92,2.50,2.49,-2.45,-1.72,-2.08,-0.52,-0.53,-0.57
287.84,1.80,1.81,2.35,2.36,-2.33,-1.64,-2.00,-0.53,-0.53,-0.55
290.72,1.67,1.68,2.20,2.21,-2.21,-1.55,-1.91,-0.54,-0.53,-0.53
293.63,1.55,1.54,2.06,2.05,-2.08,-1.47,-1.83,-0.52,-0.54,-0.51
296.57,1.41,1.40,1.90,1.90,-1.93,-1.38,-1.74,-0.52,-0.53,-0.49
299.53,1.25,1.28,1.72,1.75,-1.78,-1.30,-1.66,-0.53,-0.50,-0.47
302.53,1.16,1.16,1.62,1.60,-1.62,-1.21,-1.57,-0.46,-0.47,-0.45
305.55,1.05,1.04,1.47,1.47,-1.46,-1.12,-1.48,-0.41,-0.42,-0.42
308.61,0.91,0.93,1.31,1.33,-1.28,-1.04,-1.39,-0.37,-0.35,-0.40
311.69,0.77,0.77,1.15,1.14,-1.07,-0.95,-1.30,-0.30,-0.31,-0.38
314.81,0.60,0.56,0.94,0.91,-0.84,-0.86,-1.22,-0.24,-0.28,-0.34
317.96,0.32,0.35,0.64,0.67,-0.60,-0.77,-1.13,-0.28,-0.25,-0.32
321.14,0.09,0.14,0.40,0.44,-0.39,-0.68,-1.04,-0.29,-0.25,-0.31
324.35,-0.03,-0.09,0.26,0.20,-0.22,-0.58,-0.95,-0.25,-0.31,-0.29
327.59,-0.28,-0.33,-0.02,-0.06,-0.10,-0.49,-0.86,-0.38,-0.43,-0.26
330.87,-0.51,-0.49,-0.26,-0.24,-0.02,-0.39,-0.77,-0.53,-0.51,-0.24
334.18,-0.63,-0.47,-0.40,-0.24,0.03,-0.30,-0.68,-0.60,-0.44,-0.23
337.52,-0.29,-0.28,-0.08,-0.08,0.06,-0.20,-0.60,-0.23,-0.22,-0.21
340.90,0.07,-0.08,0.25,0.11,0.08,-0.10,-0.51,0.16,0.01,-0.18
344.30,0.04,0.02,0.21,0.19,0.10,-0.00,-0.42,0.15,0.13,-0.16
347.75,-0.13,-0.11,0.02,0.04,0.13,0.10,-0.33,0.00,0.03,-0.15
351.23,-0.33,-0.32,-0.20,-0.19,0.18,0.20,-0.24,-0.15,-0.14,-0.13
354.74,-0.54,-0.49,-0.43,-0.38,0.27,0.30,-0.15,-0.27,-0.22,-0.11
358.28,-0.60,-0.61,-0.50,-0.52,0.41,0.40,-0.06,-0.19,-0.20,-0.09
361.87,-0.68,-0.69,-0.60,-0.62,0.57,0.51,0.02,-0.10,-0.12,-0.08
365.49,-0.79,-0.77,-0.73,-0.71,0.74,0.61,0.11,-0.05,-0.03,-0.06
369.14,-0.87,-0.90,-0.82,-0.85,0.89,0.71,0.20,0.02,-0.01,-0.05
372.83,-1.03,-1.04,-1.00,-1.00,1.01,0.81,0.29,-0.02,-0.03,-0.03
376.56,-1.19,-1.17,-1.17,-1.15,1.12,0.92,0.38,-0.07,-0.04,-0.02
380.33,-1.29,-1.27,-1.29,-1.27,1.24,1.02,0.47,-0.05,-0.03,0.01
384.13,-1.34,-1.34,-1.35,-1.36,1.36,1.12,0.55,0.02,0.01,0.01
387.97,-1.39,-1.43,-1.41,-1.46,1.48,1.22,0.64,0.09,0.05,0.02
391.85,-1.54,-1.52,-1.57,-1.56,1.59,1.32,0.73,0.05,0.06,0.03
395.77,-1.66,-1.63,-1.71,-1.67,1.68,1.41,0.82,0.02,0.05,0.05
399.73,-1.70,-1.73,-1.76,-1.79,1.76,1.50,0.91,0.06,0.03,0.06
403.72,-1.81,-1.82,-1.87,-1.88,1.84,1.59,0.99,0.04,0.03,0.07
407.76,-1.89,-1.87,-1.96,-1.95,1.92,1.68,1.08,0.04,0.06,0.07
411.84,-1.94,-1.90,-2.03,-1.99,2.00,1.76,1.16,0.06,0.10,0.09
415.96,-1.89,-1.93,-1.99,-2.03,2.07,1.84,1.25,0.18,0.14,0.10
420.12,-1.94,-1.98,-2.05,-2.09,2.13,1.91,1.33,0.19,0.15,0.11
424.32,-2.09,-2.06,-2.21,-2.18,2.18,1.97,1.41,0.09,0.12,0.12
428.56,-2.16,-2.13,-2.29,-2.26,2.23,2.03,1.49,0.07,0.10,0.13
432.85,-2.17,-2.16,-2.31,-2.30,2.27,2.09,1.57,0.10,0.11,0.14
437.18,-2.13,-2.16,-2.28,-2.31,2.31,2.13,1.65,0.18,0.15,0.15
441.55,-2.17,-2.15,-2.33,-2.32,2.34,2.17,1.72,0.17,0.18,0.17
445.96,-2.18,-2.18,-2.35,-2.35,2.35,2.21,1.79,0.18,0.18,0.18
450.42,-2.16,-2.19,-2.34,-2.38,2.36,2.23,1.86,0.20,0.17,0.18
454.93,-2.22,-2.17,-2.42,-2.37,2.36,2.25,1.92,0.14,0.19,0.20
459.48,-2.12,-2.12,-2.33,-2.34,2.35,2.26,1.98,0.23,0.23,0.21
464.07,-2.05,-2.08,-2.28,-2.31,2.33,2.27,2.04,0.28,0.24,0.23
468.71,-2.03,-2.04,-2.28,-2.29,2.30,2.27,2.09,0.27,0.25,0.25
473.40,-2.05,-2.02,-2.31,-2.29,2.26,2.26,2.14,0.21,0.24,0.26
478.13,-1.99,-1.97,-2.27,-2.24,2.22,2.25,2.19,0.23,0.25,0.28
482.91,-1.89,-1.89,-2.18,-2.18,2.17,2.23,2.23,0.28,0.29,0.29
487.74,-1.75,-1.79,-2.06,-2.10,2.13,2.21,2.26,0.38,0.34,0.31
492.62,-1.73,-1.71,-2.06,-2.03,2.07,2.18,2.29,0.34,0.36,0.33
497.55,-1.66,-1.67,-2.00,-2.00,2.01,2.15,2.32,0.36,0.35,0.34
502.52,-1.61,-1.62,-1.96,-1.98,1.95,2.11,2.34,0.34,0.33,0.36
507.55,-1.59,-1.55,-1.95,-1.91,1.88,2.08,2.35,0.30,0.34,0.37
512.62,-1.45,-1.45,-1.83,-1.84,1.82,2.04,2.37,0.37,0.37,0.39
