frequency,raw
20.00,10.16
20.20,10.13
20.40,10.10
20.61,10.06
20.81,10.03
21.02,9.99
21.23,9.96
21.44,9.92
21.66,9.89
21.87,9.86
22.09,9.84
22.31,9.82
22.54,9.81
22.76,9.79
22.99,9.77
23.22,9.75
23.45,9.73
23.69,9.71
23.92,9.68
24.16,9.66
24.40,9.63
24.65,9.61
24.89,9.57
25.14,9.54
25.39,9.50
25.65,9.46
25.91,9.43
26.16,9.40
26.43,9.38
26.69,9.35
26.96,9.33
27.23,9.30
27.50,9.26
27.77,9.21
28.05,9.16
28.33,9.10
28.62,9.05
28.90,9.00
29.19,8.95
29.48,8.91
29.78,8.86
30.08,8.81
30.38,8.77
30.68,8.72
30.99,8.69
31.30,8.66
31.61,8.64
31.93,8.62
32.24,8.59
32.57,8.56
32.89,8.52
33.22,8.48
33.55,8.44
33.89,8.40
34.23,8.35
34.57,8.31
34.92,8.26
35.27,8.21
35.62,8.17
35.97,8.12
36.33,8.06
36.70,8.00
37.06,7.92
37.43,7.85
37.81,7.79
38.19,7.74
38.57,7.69
38.95,7.65
39.34,7.61
39.74,7.57
40.14,7.54
40.54,7.51
40.94,7.50
41.35,7.49
41.76,7.48
42.18,7.46
42.60,7.43
43.03,7.39
43.46,7.35
43.90,7.31
44.33,7.27
44.78,7.23
45.23,7.19
45.68,7.15
46.13,7.12
46.60,7.07
47.06,7.01
47.53,6.94
48.01,6.85
48.49,6.77
48.97,6.70
49.46,6.62
49.96,6.53
50.46,6.45
50.96,6.38
51.47,6.32
51.99,6.29
52.51,6.25
53.03,6.20
53.56,6.16
54.10,6.13
54.64,6.11
55.18,6.08
55.74,6.03
56.29,5.97
56.86,5.92
57.42,5.86
58.00,5.77
58.58,5.66
59.16,5.53
59.76,5.43
60.35,5.37
60.96,5.33
61.57,5.30
62.18,5.26
62.80,5.21
63.43,5.17
64.07,5.14
64.71,5.12
65.35,5.10
66.01,5.04
66.67,4.95
67.33,4.86
68.01,4.76
68.69,4.67
69.37,4.59
70.07,4.53
70.77,4.47
71.48,4.40
72.19,4.34
72.91,4.26
73.64,4.17
74.38,4.08
75.12,4.01
75.87,3.96
76.63,3.89
77.40,3.82
78.17,3.77
78.95,3.75
79.74,3.73
80.54,3.70
81.35,3.65
82.16,3.59
82.98,3.51
83.81,3.40
84.65,3.28
85.50,3.20
86.35,3.15
87.22,3.12
88.09,3.07
88.97,3.01
89.86,2.96
90.76,2.89
91.66,2.81
92.58,2.75
93.51,2.68
94.44,2.61
95.39,2.52
96.34,2.41
97.30,2.31
98.28,2.23
99.26,2.19
100.25,2.16
101.25,2.12
102.27,2.07
103.29,2.02
104.32,1.96
105.37,1.90
106.42,1.83
107.48,1.76
108.56,1.69
109.64,1.61
110.74,1.53
111.85,1.44
112.97,1.35
114.10,1.27
115.24,1.23
116.39,1.18
117.55,1.14
118.73,1.09
119.92,1.05
121.12,0.96
122.33,0.84
123.55,0.71
124.79,0.62
126.03,0.55
127.29,0.50
128.57,0.47
129.85,0.46
131.15,0.44
132.46,0.42
133.79,0.38
135.12,0.31
136.48,0.23
137.84,0.15
139.22,0.09
140.61,0.01
142.02,-0.05
143.44,-0.09
144.87,-0.13
146.32,-0.19
147.78,-0.27
149.26,-0.36
150.75,-0.45
152.26,-0.52
153.78,-0.59
155.32,-0.63
156.88,-0.65
158.44,-0.65
160.03,-0.67
161.63,-0.71
163.24,-0.75
164.88,-0.78
166.53,-0.81
168.19,-0.84
169.87,-0.86
171.57,-0.91
173.29,-1.00
175.02,-1.10
176.77,-1.16
178.54,-1.19
180.32,-1.22
182.13,-1.25
183.95,-1.28
185.79,-1.31
187.65,-1.36
189.52,-1.39
191.42,-1.40
193.33,-1.43
195.27,-1.46
197.22,-1.50
199.19,-1.56
201.18,-1.60
203.19,-1.63
205.23,-1.66
207.28,-1.68
209.35,-1.70
211.44,-1.73
213.56,-1.78
215.69,-1.81
217.85,-1.81
220.03,-1.80
222.23,-1.79
224.45,-1.80
226.70,-1.86
228.96,-1.91
231.25,-1.94
233.57,-1.93
235.90,-1.94
238.26,-1.96
240.64,-1.98
243.05,-2.02
245.48,-2.02
247.93,-1.99
250.41,-1.97
252.92,-1.94
255.45,-1.92
258.00,-1.93
260.58,-1.95
263.19,-1.98
265.82,-2.01
268.48,-2.04
271.16,-2.07
273.87,-2.08
276.61,-2.08
279.38,-2.08
282.17,-2.08
284.99,-2.07
287.84,-2.08
290.72,-2.10
293.63,-2.11
296.57,-2.10
299.53,-2.09
302.53,-2.10
305.55,-2.10
308.61,-2.09
311.69,-2.07
314.81,-2.04
317.96,-2.02
321.14,-2.01
324.35,-2.02
327.59,-2.04
330.87,-2.05
334.18,-2.02
337.52,-2.00
340.90,-2.00
344.30,-2.01
347.75,-2.02
351.23,-2.00
354.74,-1.96
358.28,-1.95
361.87,-1.96
365.49,-1.98
369.14,-1.98
372.83,-1.97
376.56,-1.96
380.33,-1.95
384.13,-1.93
387.97,-1.92
391.85,-1.92
395.77,-1.91
399.73,-1.91
403.72,-1.91
407.76,-1.91
411.84,-1.91
415.96,-1.90
420.12,-1.87
424.32,-1.84
428.56,-1.83
432.85,-1.82
437.18,-1.81
441.55,-1.80
445.96,-1.80
450.42,-1.81
454.93,-1.81
459.48,-1.79
464.07,-1.77
468.71,-1.75
473.40,-1.74
478.13,-1.74
482.91,-1.76
487.74,-1.78
492.62,-1.81
497.55,-1.80
502.52,-1.75
507.55,-1.70
512.62,-1.68
517.75,-1.69
522.93,-1.69
528.16,-1.66
533.44,-1.65
538.77,-1.67
544.16,-1.68
549.60,-1.68
555.10,-1.67
560.65,-1.66
566.25,-1.66
571.92,-1.64
577.64,-1.62
583.41,-1.60
589.25,-1.60
595.14,-1.61
601.09,-1.61
607.10,-1.59
613.17,-1.58
619.30,-1.56
625.50,-1.54
631.75,-1.52
638.07,-1.51
644.45,-1.50
650.89,-1.49
657.40,-1.49
663.98,-1.50
670.62,-1.50
677.32,-1.48
684.10,-1.44
690.94,-1.41
697.85,-1.39
704.83,-1.38
711.87,-1.37
718.99,-1.34
726.18,-1.31
733.44,-1.29
740.78,-1.30
748.19,-1.30
755.67,-1.29
763.23,-1.27
770.86,-1.23
778.57,-1.19
786.35,-1.15
794.22,-1.11
802.16,-1.07
810.18,-1.04
818.28,-1.00
826.46,-0.96
834.73,-0.93
843.08,-0.92
851.51,-0.89
860.02,-0.83
868.62,-0.76
877.31,-0.73
886.08,-0.72
894.94,-0.68
903.89,-0.61
912.93,-0.54
922.06,-0.47
931.28,-0.42
940.59,-0.37
950.00,-0.30
959.50,-0.23
969.09,-0.18
978.78,-0.13
988.57,-0.08
998.46,-0.01
1008.44,0.06
1018.53,0.14
1028.71,0.23
1039.00,0.30
1049.39,0.36
1059.88,0.43
1070.48,0.51
1081.19,0.59
1092.00,0.66
1102.92,0.75
1113.95,0.84
1125.09,0.92
1136.34,1.00
1147.70,1.08
1159.18,1.17
1170.77,1.26
1182.48,1.35
1194.30,1.44
1206.25,1.52
1218.31,1.60
1230.49,1.67
1242.80,1.74
1255.22,1.83
1267.78,1.91
1280.45,1.99
1293.26,2.06
1306.19,2.11
1319.25,2.17
1332.45,2.24
1345.77,2.32
1359.23,2.41
1372.82,2.50
1386.55,2.58
1400.41,2.64
1414.42,2.70
1428.56,2.78
1442.85,2.86
1457.28,2.94
1471.85,3.02
1486.57,3.08
1501.43,3.13
1516.45,3.18
1531.61,3.23
1546.93,3.28
1562.40,3.32
1578.02,3.38
1593.80,3.46
1609.74,3.54
1625.84,3.62
1642.10,3.71
1658.52,3.81
1675.10,3.90
1691.85,3.99
1708.77,4.09
1725.86,4.18
1743.12,4.27
1760.55,4.35
1778.15,4.44
1795.94,4.54
1813.90,4.63
1832.03,4.72
1850.36,4.81
1868.86,4.90
1887.55,4.98
1906.42,5.07
1925.49,5.15
1944.74,5.23
1964.19,5.32
1983.83,5.41
2003.67,5.50
2023.71,5.60
2043.94,5.69
2064.38,5.77
2085.03,5.85
2105.88,5.94
2126.94,6.03
2148.20,6.12
2169.69,6.21
2191.38,6.30
2213.30,6.40
2235.43,6.48
2257.78,6.56
2280.36,6.64
2303.17,6.74
2326.20,6.82
2349.46,6.89
2372.95,6.96
2396.68,7.02
2420.65,7.07
2444.86,7.13
2469.31,7.18
2494.00,7.23
2518.94,7.27
2544.13,7.30
2569.57,7.34
2595.27,7.37
2621.22,7.39
2647.43,7.40
2673.90,7.40
2700.64,7.39
2727.65,7.37
2754.93,7.35
2782.48,7.33
2810.30,7.31
2838.40,7.28
2866.79,7.25
2895.46,7.21
2924.41,7.16
2953.65,7.11
2983.19,7.06
3013.02,7.00
3043.15,6.94
3073.58,6.87
3104.32,6.79
3135.36,6.72
3166.72,6.65
3198.38,6.57
3230.37,6.49
3262.67,6.42
3295.30,6.35
3328.25,6.27
3361.53,6.19
3395.15,6.12
3429.10,6.05
3463.39,5.98
3498.03,5.90
3533.01,5.83
3568.34,5.76
3604.02,5.70
3640.06,5.64
3676.46,5.57
3713.22,5.50
3750.36,5.45
3787.86,5.41
3825.74,5.38
3864.00,5.34
3902.64,5.32
3941.66,5.31
3981.08,5.31
4020.89,5.31
4061.10,5.31
4101.71,5.30
4142.73,5.29
4184.15,5.28
4226.00,5.27
4268.26,5.27
4310.94,5.27
4354.05,5.26
4397.59,5.25
4441.56,5.23
4485.98,5.22
4530.84,5.21
4576.15,5.18
4621.91,5.14
4668.13,5.09
4714.81,5.03
4761.96,4.98
4809.58,4.91
4857.67,4.82
4906.25,4.70
4955.31,4.57
5004.87,4.41
5054.91,4.24
5105.46,4.05
5156.52,3.84
5208.08,3.60
5260.16,3.34
5312.77,3.05
5365.89,2.74
5419.55,2.43
5473.75,2.10
5528.49,1.76
5583.77,1.43
5639.61,1.11
5696.00,0.81
5752.96,0.54
5810.49,0.28
5868.60,0.05
5927.28,-0.18
5986.56,-0.39
6046.42,-0.58
6106.89,-0.76
6167.96,-0.92
6229.64,-1.06
6291.93,-1.19
6354.85,-1.31
6418.40,-1.41
6482.58,-1.48
6547.41,-1.53
6612.88,-1.55
6679.01,-1.54
6745.80,-1.51
6813.26,-1.45
6881.39,-1.37
6950.21,-1.25
7019.71,-1.09
7089.91,-0.89
7160.81,-0.63
7232.41,-0.34
7304.74,0.02
7377.79,0.43
7451.56,0.90
7526.08,1.43
7601.34,2.02
7677.35,2.66
7754.13,3.31
7831.67,3.93
7909.98,4.44
7989.08,4.80
8068.98,4.97
8149.67,4.86
8231.16,4.52
8313.47,3.98
8396.61,3.26
8480.57,2.45
8565.38,1.58
8651.03,0.71
8737.54,-0.11
8824.92,-0.89
8913.17,-1.63
9002.30,-2.32
9092.32,-2.96
9183.25,-3.55
9275.08,-4.07
9367.83,-4.54
9461.51,-4.96
9556.12,-5.32
9651.68,-5.63
9748.20,-5.88
9845.68,-6.08
9944.14,-6.22
10043.58,-6.32
10144.02,-6.37
10245.46,-6.37
10347.91,-6.31
10451.39,-6.21
10555.91,-6.07
10661.46,-5.87
10768.08,-5.64
10875.76,-5.38
10984.52,-5.09
11094.36,-4.77
11205.31,-4.45
11317.36,-4.13
11430.53,-3.84
11544.84,-3.59
11660.29,-3.39
11776.89,-3.27
11894.66,-3.19
12013.60,-3.13
12133.74,-3.07
12255.08,-3.01
12377.63,-2.93
12501.41,-2.83
12626.42,-2.69
12752.68,-2.51
12880.21,-2.30
13009.01,-2.11
13139.10,-1.97
13270.49,-1.87
13403.20,-1.81
13537.23,-1.78
13672.60,-1.80
13809.33,-1.88
13947.42,-1.97
14086.90,-2.03
14227.77,-2.04
14370.04,-1.99
14513.74,-1.87
14658.88,-1.68
14805.47,-1.46
14953.52,-1.23
15103.06,-1.05
15254.09,-1.01
15406.63,-1.17
15560.70,-1.55
15716.30,-2.17
15873.47,-2.97
16032.20,-3.93
16192.52,-4.99
16354.45,-6.07
16517.99,-7.10
16683.17,-8.06
16850.01,-8.93
17018.51,-9.72
17188.69,-10.42
17360.58,-11.00
17534.18,-11.44
17709.53,-11.77
17886.62,-12.00
18065.49,-12.14
18246.14,-12.20
18428.60,-12.16
18612.89,-12.05
18799.02,-11.88
18987.01,-11.65
19176.88,-11.39
19368.65,-11.07
19562.33,-10.59
19757.96,-9.78
19955.54,-8.67
