frequency,raw,smoothed,error,error_smoothed,equalization,parametric_eq,fixed_band_eq,equalized_raw,equalized_smoothed,target
20.00,6.91,6.91,4.85,4.85,-4.87,-4.03,-1.94,2.04,2.04,2.07
20.20,6.89,6.90,4.80,4.80,-4.81,-4.04,-2.00,2.09,2.09,2.10
20.40,6.88,6.88,4.76,4.76,-4.75,-4.04,-2.06,2.13,2.13,2.13
20.61,6.86,6.86,4.72,4.71,-4.70,-4.04,-2.12,2.17,2.17,2.14
20.81,6.84,6.85,4.67,4.67,-4.65,-4.04,-2.18,2.19,2.19,2.17
21.02,6.82,6.82,4.62,4.62,-4.61,-4.05,-2.24,2.22,2.21,2.20
21.23,6.79,6.79,4.58,4.58,-4.57,-4.05,-2.30,2.23,2.23,2.21
21.44,6.76,6.76,4.54,4.54,-4.53,-4.05,-2.37,2.23,2.23,2.22
21.66,6.72,6.73,4.49,4.50,-4.49,-4.06,-2.44,2.23,2.23,2.23
21.87,6.69,6.70,4.46,4.46,-4.46,-4.06,-2.51,2.23,2.23,2.23
22.09,6.67,6.67,4.43,4.43,-4.44,-4.06,-2.58,2.23,2.23,2.24
22.31,6.65,6.66,4.41,4.42,-4.43,-4.07,-2.65,2.22,2.22,2.24
22.54,6.65,6.65,4.41,4.41,-4.43,-4.07,-2.73,2.22,2.22,2.24
22.76,6.65,6.66,4.41,4.42,-4.44,-4.07,-2.81,2.22,2.22,2.24
22.99,6.67,6.67,4.45,4.44,-4.45,-4.08,-2.88,2.23,2.23,2.23
23.22,6.69,6.69,4.47,4.47,-4.46,-4.08,-2.97,2.24,2.24,2.23
23.45,6.71,6.71,4.49,4.49,-4.47,-4.09,-3.05,2.25,2.25,2.23
23.69,6.72,6.72,4.50,4.49,-4.47,-4.09,-3.13,2.26,2.25,2.23
23.92,6.71,6.71,4.49,4.48,-4.46,-4.09,-3.22,2.25,2.25,2.23
24.16,6.69,6.69,4.46,4.46,-4.45,-4.10,-3.31,2.24,2.24,2.23
24.40,6.66,6.66,4.43,4.43,-4.43,-4.10,-3.40,2.23,2.23,2.23
24.65,6.63,6.63,4.41,4.41,-4.41,-4.11,-3.49,2.22,2.22,2.22
24.89,6.60,6.60,4.38,4.38,-4.39,-4.11,-3.58,2.21,2.21,2.22
25.14,6.57,6.58,4.35,4.36,-4.37,-4.11,-3.67,2.20,2.20,2.22
25.39,6.56,6.56,4.34,4.34,-4.36,-4.12,-3.77,2.20,2.20,2.22
25.65,6.56,6.56,4.34,4.35,-4.36,-4.12,-3.86,2.20,2.20,2.22
25.91,6.57,6.58,4.37,4.36,-4.37,-4.13,-3.95,2.20,2.21,2.21
26.16,6.59,6.59,4.39,4.38,-4.38,-4.13,-4.05,2.21,2.21,2.21
26.43,6.61,6.61,4.41,4.41,-4.39,-4.14,-4.14,2.22,2.22,2.21
26.69,6.62,6.63,4.42,4.42,-4.41,-4.14,-4.23,2.22,2.22,2.20
26.96,6.64,6.64,4.44,4.43,-4.42,-4.15,-4.33,2.22,2.22,2.20
27.23,6.64,6.64,4.44,4.44,-4.43,-4.15,-4.41,2.21,2.21,2.20
27.50,6.63,6.64,4.43,4.44,-4.44,-4.16,-4.50,2.20,2.20,2.20
27.77,6.63,6.63,4.44,4.44,-4.45,-4.16,-4.59,2.19,2.18,2.19
28.05,6.62,6.63,4.44,4.44,-4.46,-4.17,-4.67,2.17,2.17,2.19
28.33,6.63,6.63,4.46,4.45,-4.47,-4.17,-4.75,2.17,2.17,2.18
28.62,6.64,6.64,4.47,4.47,-4.48,-4.18,-4.83,2.16,2.16,2.17
28.90,6.66,6.66,4.49,4.49,-4.49,-4.18,-4.90,2.17,2.17,2.17
29.19,6.68,6.68,4.52,4.52,-4.51,-4.19,-4.96,2.18,2.18,2.16
29.48,6.70,6.70,4.53,4.54,-4.52,-4.20,-5.02,2.18,2.18,2.17
29.78,6.71,6.71,4.56,4.55,-4.54,-4.20,-5.08,2.18,2.18,2.16
30.08,6.71,6.71,4.56,4.56,-4.55,-4.21,-5.13,2.16,2.16,2.16
30.38,6.70,6.70,4.56,4.56,-4.56,-4.21,-5.18,2.14,2.14,2.14
30.68,6.69,6.70,4.55,4.56,-4.58,-4.22,-5.21,2.11,2.12,2.14
30.99,6.70,6.71,4.57,4.57,-4.60,-4.23,-5.24,2.11,2.11,2.13
31.30,6.72,6.72,4.60,4.59,-4.61,-4.23,-5.27,2.12,2.12,2.13
31.61,6.74,6.75,4.62,4.62,-4.61,-4.24,-5.29,2.13,2.13,2.13
31.93,6.76,6.76,4.65,4.65,-4.62,-4.25,-5.30,2.14,2.14,2.11
32.24,6.76,6.76,4.66,4.65,-4.62,-4.26,-5.30,2.14,2.14,2.10
32.57,6.74,6.74,4.65,4.65,-4.63,-4.26,-5.30,2.12,2.11,2.10
32.89,6.71,6.71,4.62,4.62,-4.63,-4.27,-5.30,2.08,2.08,2.10
33.22,6.68,6.69,4.60,4.60,-4.64,-4.28,-5.28,2.05,2.05,2.08
33.55,6.66,6.67,4.58,4.59,-4.63,-4.29,-5.27,2.03,2.04,2.08
33.89,6.67,6.68,4.61,4.61,-4.62,-4.29,-5.24,2.05,2.06,2.07
34.23,6.69,6.69,4.63,4.63,-4.61,-4.30,-5.22,2.09,2.09,2.06
34.57,6.70,6.69,4.65,4.64,-4.59,-4.31,-5.19,2.12,2.10,2.05
34.92,6.66,6.66,4.63,4.62,-4.57,-4.32,-5.15,2.09,2.09,2.04
35.27,6.60,6.60,4.57,4.57,-4.56,-4.33,-5.12,2.05,2.05,2.03
35.62,6.53,6.53,4.51,4.51,-4.54,-4.33,-5.08,1.99,1.99,2.02
35.97,6.47,6.49,4.47,4.47,-4.53,-4.34,-5.04,1.94,1.95,2.01
36.33,6.46,6.47,4.46,4.47,-4.52,-4.35,-5.00,1.94,1.95,2.00
36.70,6.49,6.49,4.50,4.50,-4.52,-4.36,-4.96,1.98,1.97,1.99
37.06,6.52,6.52,4.55,4.54,-4.52,-4.37,-4.91,2.01,2.00,1.98
37.43,6.53,6.53,4.56,4.56,-4.53,-4.38,-4.87,2.01,2.00,1.97
37.81,6.52,6.52,4.57,4.56,-4.54,-4.39,-4.83,1.99,1.98,1.96
38.19,6.49,6.50,4.55,4.55,-4.54,-4.40,-4.79,1.95,1.96,1.94
38.57,6.47,6.48,4.54,4.54,-4.54,-4.41,-4.75,1.93,1.93,1.94
38.95,6.45,6.45,4.53,4.53,-4.54,-4.42,-4.71,1.92,1.91,1.92
39.34,6.43,6.43,4.53,4.52,-4.53,-4.43,-4.68,1.91,1.90,1.91
39.74,6.40,6.40,4.51,4.51,-4.51,-4.44,-4.64,1.89,1.89,1.89
40.14,6.37,6.37,4.49,4.49,-4.49,-4.45,-4.61,1.88,1.88,1.89
40.54,6.34,6.35,4.47,4.47,-4.47,-4.47,-4.58,1.87,1.88,1.87
40.94,6.32,6.33,4.46,4.46,-4.45,-4.48,-4.55,1.87,1.87,1.87
41.35,6.30,6.30,4.45,4.45,-4.43,-4.49,-4.53,1.87,1.87,1.85
41.76,6.27,6.27,4.43,4.42,-4.42,-4.50,-4.51,1.86,1.85,1.84
42.18,6.22,6.22,4.39,4.39,-4.40,-4.51,-4.49,1.82,1.82,1.84
42.60,6.18,6.19,4.36,4.37,-4.39,-4.53,-4.47,1.79,1.80,1.82
43.03,6.16,6.17,4.35,4.36,-4.39,-4.54,-4.46,1.78,1.79,1.81
43.46,6.17,6.17,4.38,4.38,-4.38,-4.55,-4.45,1.80,1.79,1.80
43.90,6.16,6.16,4.39,4.39,-4.37,-4.56,-4.45,1.80,1.79,1.77
44.33,6.14,6.14,4.39,4.38,-4.36,-4.58,-4.44,1.78,1.78,1.75
44.78,6.09,6.09,4.36,4.36,-4.35,-4.59,-4.44,1.75,1.75,1.73
45.23,6.04,6.05,4.33,4.34,-4.34,-4.61,-4.45,1.71,1.71,1.71
45.68,6.00,6.01,4.31,4.31,-4.32,-4.62,-4.46,1.69,1.69,1.70
46.13,5.97,5.97,4.30,4.29,-4.30,-4.64,-4.47,1.68,1.67,1.68
46.60,5.93,5.93,4.27,4.27,-4.27,-4.65,-4.48,1.66,1.66,1.67
47.06,5.89,5.89,4.25,4.24,-4.25,-4.67,-4.50,1.65,1.65,1.65
47.53,5.84,5.85,4.22,4.22,-4.22,-4.68,-4.52,1.62,1.63,1.63
48.01,5.81,5.81,4.20,4.20,-4.20,-4.70,-4.54,1.61,1.61,1.62
48.49,5.77,5.77,4.19,4.18,-4.18,-4.72,-4.57,1.59,1.59,1.59
48.97,5.72,5.72,4.17,4.17,-4.16,-4.73,-4.60,1.56,1.56,1.56
49.46,5.66,5.67,4.14,4.14,-4.14,-4.75,-4.63,1.53,1.53,1.52
49.96,5.61,5.61,4.12,4.11,-4.12,-4.77,-4.66,1.50,1.50,1.49
50.46,5.56,5.57,4.08,4.09,-4.09,-4.79,-4.70,1.47,1.48,1.48
50.96,5.52,5.52,4.07,4.07,-4.07,-4.80,-4.74,1.46,1.46,1.46
51.47,5.48,5.48,4.06,4.05,-4.04,-4.82,-4.78,1.44,1.44,1.43
51.99,5.43,5.43,4.03,4.03,-4.02,-4.84,-4.82,1.41,1.41,1.40
52.51,5.38,5.38,4.00,4.00,-4.00,-4.86,-4.87,1.38,1.38,1.39
53.03,5.33,5.34,3.97,3.98,-3.99,-4.88,-4.91,1.34,1.35,1.36
53.56,5.30,5.31,3.97,3.97,-3.98,-4.90,-4.96,1.32,1.33,1.34
54.10,5.28,5.28,3.97,3.97,-3.97,-4.92,-5.00,1.31,1.31,1.31
54.64,5.26,5.26,3.98,3.98,-3.97,-4.95,-5.05,1.30,1.29,1.29
55.18,5.24,5.24,3.98,3.98,-3.97,-4.97,-5.10,1.28,1.27,1.26
55.74,5.21,5.22,3.98,3.98,-3.97,-4.99,-5.14,1.24,1.24,1.23
56.29,5.19,5.19,3.98,3.98,-3.98,-5.02,-5.19,1.21,1.21,1.22
56.86,5.17,5.17,3.99,3.99,-3.99,-5.04,-5.23,1.18,1.18,1.19
57.42,5.16,5.16,4.00,4.00,-4.01,-5.06,-5.27,1.16,1.15,1.16
58.00,5.15,5.16,4.01,4.02,-4.02,-5.09,-5.31,1.13,1.14,1.14
58.58,5.16,5.16,4.04,4.04,-4.04,-5.11,-5.35,1.12,1.12,1.12
59.16,5.17,5.17,4.07,4.07,-4.06,-5.14,-5.39,1.11,1.11,1.10
59.76,5.17,5.17,4.10,4.10,-4.09,-5.17,-5.42,1.09,1.09,1.08
60.35,5.17,5.18,4.13,4.13,-4.12,-5.20,-5.45,1.06,1.06,1.05
60.96,5.17,5.17,4.15,4.15,-4.15,-5.23,-5.48,1.02,1.02,1.02
61.57,5.17,5.16,4.19,4.18,-4.19,-5.25,-5.50,0.99,0.98,0.98
62.18,5.15,5.16,4.21,4.21,-4.23,-5.29,-5.52,0.93,0.94,0.95
62.80,5.17,5.18,4.25,4.26,-4.27,-5.32,-5.54,0.90,0.91,0.92
63.43,5.21,5.21,4.33,4.32,-4.33,-5.35,-5.55,0.89,0.89,0.89
64.07,5.27,5.26,4.41,4.40,-4.38,-5.38,-5.56,0.89,0.87,0.86
64.71,5.29,5.30,4.46,4.46,-4.45,-5.41,-5.57,0.84,0.85,0.84
65.35,5.33,5.34,4.53,4.53,-4.53,-5.45,-5.57,0.80,0.81,0.81
66.01,5.38,5.38,4.60,4.60,-4.61,-5.48,-5.58,0.77,0.77,0.78
66.67,5.44,5.45,4.69,4.69,-4.70,-5.52,-5.58,0.74,0.74,0.75
67.33,5.51,5.52,4.79,4.80,-4.80,-5.56,-5.57,0.71,0.72,0.72
68.01,5.60,5.60,4.91,4.91,-4.90,-5.60,-5.57,0.70,0.69,0.69
68.69,5.68,5.68,5.02,5.02,-5.01,-5.64,-5.56,0.67,0.67,0.66
69.37,5.76,5.76,5.14,5.14,-5.13,-5.68,-5.55,0.63,0.63,0.63
70.07,5.84,5.85,5.25,5.26,-5.26,-5.72,-5.54,0.59,0.59,0.59
70.77,5.95,5.95,5.38,5.38,-5.39,-5.76,-5.53,0.57,0.56,0.57
71.48,6.05,6.05,5.52,5.51,-5.52,-5.81,-5.52,0.53,0.53,0.54
72.19,6.15,6.16,5.65,5.66,-5.66,-5.85,-5.51,0.50,0.50,0.50
72.91,6.26,6.26,5.80,5.80,-5.80,-5.90,-5.51,0.47,0.47,0.47
73.64,6.37,6.37,5.95,5.94,-5.94,-5.95,-5.50,0.43,0.43,0.43
74.38,6.48,6.48,6.08,6.09,-6.08,-6.00,-5.49,0.40,0.40,0.40
75.12,6.58,6.59,6.22,6.22,-6.22,-6.05,-5.49,0.36,0.37,0.36
75.87,6.69,6.69,6.36,6.36,-6.36,-6.11,-5.48,0.34,0.33,0.33
76.63,6.79,6.79,6.49,6.49,-6.49,-6.16,-5.48,0.30,0.30,0.30
77.40,6.88,6.89,6.61,6.62,-6.62,-6.22,-5.48,0.27,0.27,0.27
78.17,6.98,6.98,6.75,6.74,-6.74,-6.27,-5.49,0.24,0.24,0.23
78.95,7.06,7.06,6.86,6.85,-6.86,-6.33,-5.50,0.21,0.20,0.21
79.74,7.12,7.14,6.95,6.96,-6.97,-6.39,-5.51,0.16,0.17,0.17
80.54,7.20,7.21,7.06,7.07,-7.07,-6.46,-5.52,0.14,0.14,0.14
81.35,7.28,7.27,7.18,7.16,-7.16,-6.52,-5.54,0.12,0.11,0.10
82.16,7.32,7.33,7.25,7.26,-7.25,-6.59,-5.56,0.08,0.08,0.07
82.98,7.37,7.37,7.33,7.34,-7.33,-6.66,-5.58,0.05,0.05,0.04
83.81,7.41,7.40,7.42,7.40,-7.40,-6.73,-5.61,0.01,0.00,-0.00
84.65,7.42,7.43,7.47,7.47,-7.47,-6.80,-5.65,-0.04,-0.04,-0.04
85.50,7.44,7.45,7.51,7.52,-7.53,-6.87,-5.68,-0.08,-0.08,-0.07
86.35,7.47,7.47,7.58,7.58,-7.59,-6.95,-5.72,-0.11,-0.12,-0.11
87.22,7.49,7.49,7.64,7.64,-7.64,-7.02,-5.77,-0.15,-0.15,-0.15
88.09,7.51,7.52,7.70,7.70,-7.70,-7.10,-5.82,-0.19,-0.19,-0.19
88.97,7.53,7.54,7.75,7.76,-7.76,-7.18,-5.87,-0.23,-0.23,-0.22
89.86,7.56,7.56,7.83,7.82,-7.83,-7.26,-5.93,-0.26,-0.27,-0.26
90.76,7.57,7.58,7.89,7.89,-7.89,-7.34,-6.00,-0.32,-0.31,-0.31
91.66,7.59,7.60,7.94,7.95,-7.96,-7.43,-6.06,-0.36,-0.36,-0.35
92.58,7.63,7.63,8.03,8.03,-8.03,-7.51,-6.14,-0.39,-0.40,-0.40
93.51,7.66,7.66,8.10,8.10,-8.10,-7.60,-6.21,-0.44,-0.44,-0.43
94.44,7.69,7.69,8.17,8.17,-8.17,-7.69,-6.29,-0.48,-0.48,-0.48
95.39,7.71,7.71,8.24,8.24,-8.24,-7.77,-6.37,-0.52,-0.53,-0.52
96.34,7.72,7.73,8.30,8.31,-8.30,-7.86,-6.46,-0.58,-0.57,-0.58
97.30,7.75,7.75,8.38,8.37,-8.37,-7.95,-6.55,-0.61,-0.62,-0.62
98.28,7.76,7.76,8.43,8.43,-8.42,-8.04,-6.65,-0.66,-0.66,-0.67
99.26,7.76,7.77,8.48,8.48,-8.48,-8.12,-6.75,-0.71,-0.71,-0.71
100.25,7.76,7.76,8.52,8.52,-8.53,-8.21,-6.85,-0.76,-0.76,-0.76
101.25,7.75,7.76,8.56,8.57,-8.57,-8.29,-6.95,-0.82,-0.81,-0.81
102.27,7.75,7.75,8.61,8.61,-8.61,-8.37,-7.06,-0.85,-0.85,-0.85
103.29,7.74,7.74,8.65,8.64,-8.64,-8.45,-7.17,-0.89,-0.90,-0.91
104.32,7.72,7.72,8.67,8.67,-8.66,-8.53,-7.27,-0.94,-0.94,-0.94
105.37,7.69,7.69,8.68,8.68,-8.68,-8.60,-7.38,-0.99,-0.99,-0.99
106.42,7.65,7.66,8.69,8.69,-8.70,-8.66,-7.49,-1.04,-1.04,-1.04
107.48,7.61,7.62,8.70,8.70,-8.70,-8.73,-7.60,-1.09,-1.09,-1.08
108.56,7.57,7.57,8.71,8.70,-8.70,-8.78,-7.71,-1.13,-1.14,-1.14
109.64,7.51,7.52,8.70,8.70,-8.70,-8.83,-7.82,-1.19,-1.18,-1.19
110.74,7.45,7.46,8.68,8.70,-8.69,-8.87,-7.92,-1.24,-1.23,-1.23
111.85,7.41,7.40,8.69,8.68,-8.68,-8.91,-8.02,-1.27,-1.28,-1.28
112.97,7.32,7.32,8.67,8.65,-8.66,-8.93,-8.11,-1.34,-1.34,-1.34
114.10,7.22,7.24,8.61,8.63,-8.64,-8.96,-8.20,-1.41,-1.40,-1.39
115.24,7.14,7.16,8.59,8.60,-8.60,-8.96,-8.27,-1.46,-1.45,-1.44
116.39,7.09,7.08,8.59,8.58,-8.57,-8.96,-8.35,-1.47,-1.49,-1.50
117.55,7.00,6.99,8.55,8.54,-8.52,-8.95,-8.41,-1.52,-1.53,-1.55
118.73,6.87,6.88,8.48,8.48,-8.47,-8.93,-8.47,-1.60,-1.59,-1.60
119.92,6.75,6.76,8.40,8.41,-8.41,-8.89,-8.50,-1.66,-1.66,-1.65
121.12,6.63,6.64,8.34,8.34,-8.36,-8.85,-8.54,-1.72,-1.72,-1.70
122.33,6.52,6.53,8.28,8.28,-8.29,-8.80,-8.55,-1.77,-1.76,-1.75
123.55,6.42,6.42,8.22,8.22,-8.22,-8.74,-8.56,-1.80,-1.80,-1.79
124.79,6.31,6.31,8.16,8.16,-8.15,-8.66,-8.55,-1.84,-1.84,-1.85
126.03,6.19,6.19,8.09,8.09,-8.08,-8.58,-8.54,-1.89,-1.89,-1.90
127.29,6.05,6.06,8.00,8.01,-8.01,-8.49,-8.50,-1.95,-1.95,-1.95
128.57,5.92,5.93,7.93,7.93,-7.93,-8.39,-8.46,-2.01,-2.00,-2.01
129.85,5.79,5.79,7.85,7.85,-7.85,-8.28,-8.40,-2.05,-2.05,-2.05
131.15,5.66,5.66,7.77,7.76,-7.76,-8.17,-8.33,-2.09,-2.10,-2.10
132.46,5.52,5.52,7.67,7.67,-7.66,-8.05,-8.25,-2.14,-2.14,-2.15
133.79,5.37,5.38,7.56,7.57,-7.57,-7.93,-8.16,-2.19,-2.19,-2.19
135.12,5.22,5.22,7.47,7.46,-7.47,-7.79,-8.05,-2.24,-2.24,-2.24
136.48,5.07,5.07,7.35,7.35,-7.36,-7.66,-7.95,-2.29,-2.29,-2.28
137.84,4.92,4.92,7.25,7.25,-7.25,-7.52,-7.83,-2.33,-2.33,-2.32
139.22,4.77,4.77,7.15,7.14,-7.14,-7.38,-7.71,-2.37,-2.37,-2.38
140.61,4.61,4.61,7.03,7.03,-7.02,-7.24,-7.57,-2.41,-2.41,-2.42
142.02,4.45,4.46,6.89,6.90,-6.90,-7.09,-7.44,-2.44,-2.44,-2.44
143.44,4.29,4.30,6.78,6.78,-6.77,-6.95,-7.30,-2.48,-2.48,-2.48
144.87,4.13,4.13,6.66,6.65,-6.64,-6.80,-7.16,-2.51,-2.51,-2.52
146.32,3.95,3.95,6.52,6.51,-6.51,-6.65,-7.02,-2.55,-2.55,-2.56
147.78,3.76,3.77,6.35,6.36,-6.37,-6.51,-6.87,-2.60,-2.60,-2.59
149.26,3.58,3.59,6.21,6.22,-6.22,-6.36,-6.73,-2.64,-2.64,-2.63
150.75,3.41,3.41,6.09,6.08,-6.08,-6.22,-6.58,-2.67,-2.67,-2.68
152.26,3.23,3.24,5.95,5.95,-5.94,-6.07,-6.44,-2.71,-2.71,-2.71
153.78,3.06,3.06,5.81,5.81,-5.81,-5.93,-6.29,-2.74,-2.75,-2.75
155.32,2.88,2.88,5.68,5.67,-5.67,-5.79,-6.15,-2.79,-2.79,-2.79
156.88,2.70,2.71,5.53,5.54,-5.55,-5.65,-6.01,-2.84,-2.84,-2.83
158.44,2.54,2.55,5.41,5.41,-5.42,-5.52,-5.87,-2.88,-2.88,-2.87
160.03,2.39,2.40,5.30,5.31,-5.31,-5.38,-5.74,-2.91,-2.91,-2.91
161.63,2.25,2.25,5.21,5.20,-5.20,-5.25,-5.60,-2.94,-2.95,-2.95
163.24,2.11,2.11,5.11,5.10,-5.09,-5.12,-5.47,-2.98,-2.98,-2.99
164.88,1.96,1.97,4.99,4.99,-5.00,-5.00,-5.35,-3.03,-3.03,-3.02
166.53,1.83,1.83,4.90,4.89,-4.91,-4.87,-5.22,-3.07,-3.08,-3.06
168.19,1.70,1.71,4.80,4.81,-4.82,-4.75,-5.10,-3.12,-3.11,-3.10
169.87,1.59,1.60,4.73,4.74,-4.74,-4.63,-4.98,-3.14,-3.14,-3.14
171.57,1.49,1.49,4.67,4.66,-4.65,-4.52,-4.87,-3.16,-3.17,-3.18
173.29,1.37,1.37,4.59,4.58,-4.57,-4.41,-4.75,-3.20,-3.20,-3.21
175.02,1.24,1.25,4.49,4.50,-4.49,-4.30,-4.65,-3.25,-3.24,-3.25
176.77,1.12,1.12,4.42,4.41,-4.41,-4.19,-4.54,-3.29,-3.29,-3.29
178.54,0.99,0.99,4.33,4.32,-4.32,-4.09,-4.44,-3.33,-3.33,-3.34
180.32,0.86,0.87,4.23,4.24,-4.23,-3.99,-4.34,-3.37,-3.37,-3.37
182.13,0.73,0.73,4.14,4.14,-4.14,-3.89,-4.25,-3.41,-3.41,-3.40
183.95,0.60,0.60,4.05,4.04,-4.04,-3.80,-4.15,-3.44,-3.44,-3.44
185.79,0.46,0.46,3.94,3.94,-3.94,-3.70,-4.07,-3.48,-3.48,-3.47
187.65,0.32,0.33,3.84,3.84,-3.84,-3.61,-3.98,-3.51,-3.51,-3.52
189.52,0.19,0.19,3.74,3.74,-3.73,-3.53,-3.90,-3.54,-3.54,-3.55
191.42,0.05,0.05,3.63,3.63,-3.62,-3.44,-3.82,-3.57,-3.57,-3.57
193.33,-0.09,-0.09,3.52,3.51,-3.52,-3.36,-3.74,-3.60,-3.61,-3.60
195.27,-0.24,-0.23,3.40,3.40,-3.41,-3.28,-3.67,-3.64,-3.64,-3.63
197.22,-0.38,-0.37,3.28,3.30,-3.30,-3.21,-3.60,-3.67,-3.66,-3.66
199.19,-0.49,-0.49,3.21,3.20,-3.19,-3.13,-3.53,-3.68,-3.68,-3.70
201.18,-0.61,-0.62,3.11,3.10,-3.09,-3.06,-3.46,-3.70,-3.71,-3.71
203.19,-0.74,-0.74,2.99,2.99,-3.00,-2.99,-3.40,-3.73,-3.74,-3.73
205.23,-0.87,-0.85,2.89,2.90,-2.91,-2.93,-3.34,-3.78,-3.76,-3.76
207.28,-0.96,-0.95,2.80,2.81,-2.83,-2.86,-3.28,-3.78,-3.78,-3.76
209.35,-1.03,-1.04,2.76,2.75,-2.75,-2.80,-3.22,-3.78,-3.79,-3.78
211.44,-1.12,-1.11,2.69,2.69,-2.68,-2.74,-3.16,-3.80,-3.79,-3.81
213.56,-1.19,-1.19,2.63,2.62,-2.62,-2.69,-3.11,-3.80,-3.81,-3.81
215.69,-1.27,-1.26,2.55,2.56,-2.56,-2.63,-3.06,-3.82,-3.82,-3.82
217.85,-1.34,-1.33,2.49,2.50,-2.50,-2.58,-3.01,-3.84,-3.83,-3.83
220.03,-1.38,-1.39,2.46,2.45,-2.45,-2.53,-2.95,-3.83,-3.84,-3.84
222.23,-1.44,-1.43,2.42,2.41,-2.41,-2.48,-2.91,-3.84,-3.84,-3.85
224.45,-1.49,-1.48,2.36,2.37,-2.37,-2.44,-2.86,-3.85,-3.84,-3.84
226.70,-1.51,-1.52,2.34,2.33,-2.33,-2.39,-2.81,-3.84,-3.85,-3.85
228.96,-1.55,-1.55,2.30,2.29,-2.30,-2.35,-2.76,-3.85,-3.85,-3.85
231.25,-1.58,-1.57,2.26,2.27,-2.28,-2.31,-2.71,-3.86,-3.85,-3.84
233.57,-1.59,-1.59,2.25,2.25,-2.26,-2.27,-2.67,-3.85,-3.85,-3.84
235.90,-1.59,-1.60,2.25,2.24,-2.25,-2.24,-2.62,-3.83,-3.84,-3.84
238.26,-1.61,-1.60,2.23,2.23,-2.23,-2.20,-2.57,-3.84,-3.83,-3.84
240.64,-1.61,-1.60,2.22,2.23,-2.22,-2.17,-2.52,-3.82,-3.82,-3.82
243.05,-1.60,-1.60,2.22,2.21,-2.20,-2.14,-2.47,-3.80,-3.80,-3.81
245.48,-1.60,-1.60,2.21,2.20,-2.18,-2.11,-2.43,-3.78,-3.79,-3.80
247.93,-1.62,-1.62,2.17,2.18,-2.16,-2.08,-2.38,-3.78,-3.78,-3.79
250.41,-1.65,-1.63,2.14,2.15,-2.15,-2.06,-2.33,-3.79,-3.78,-3.79
252.92,-1.65,-1.65,2.12,2.11,-2.13,-2.03,-2.28,-3.77,-3.78,-3.77
255.45,-1.66,-1.66,2.09,2.09,-2.11,-2.01,-2.22,-3.76,-3.77,-3.74
258.00,-1.67,-1.65,2.06,2.07,-2.09,-1.99,-2.17,-3.75,-3.74,-3.73
260.58,-1.65,-1.65,2.07,2.07,-2.07,-1.97,-2.12,-3.71,-3.71,-3.72
263.19,-1.63,-1.63,2.07,2.06,-2.05,-1.95,-2.07,-3.67,-3.68,-3.69
265.82,-1.63,-1.63,2.05,2.05,-2.03,-1.94,-2.01,-3.66,-3.66,-3.68
268.48,-1.64,-1.64,2.02,2.02,-2.01,-1.92,-1.96,-3.65,-3.65,-3.66
271.16,-1.66,-1.65,1.98,1.99,-1.99,-1.91,-1.90,-3.65,-3.64,-3.63
273.87,-1.66,-1.66,1.96,1.96,-1.97,-1.89,-1.84,-3.63,-3.63,-3.62
276.61,-1.65,-1.66,1.95,1.93,-1.94,-1.88,-1.79,-3.59,-3.61,-3.59
279.38,-1.68,-1.66,1.90,1.92,-1.92,-1.87,-1.73,-3.59,-3.58,-3.58
282.17,-1.67,-1.66,1.90,1.90,-1.89,-1.86,-1.67,-3.56,-3.55,-3.56
284.99,-1.65,-1.67,1.89,1.87,-1.86,-1.84,-1.61,-3.51,-3.53,-3.54
287.84,-1.69,-1.68,1.84,1.84,-1.84,-1.83,-1.55,-3.53,-3.52,-3.52
290.72,-1.71,-1.70,1.79,1.80,-1.81,-1.82,-1.50,-3.52,-3.51,-3.50
293.63,-1.71,-1.71,1.78,1.77,-1.78,-1.80,-1.44,-3.49,-3.49,-3.48
296.57,-1.71,-1.71,1.75,1.75,-1.75,-1.79,-1.38,-3.46,-3.46,-3.46
299.53,-1.71,-1.71,1.73,1.73,-1.72,-1.77,-1.32,-3.42,-3.43,-3.44
302.53,-1.73,-1.73,1.70,1.69,-1.68,-1.75,-1.26,-3.40,-3.40,-3.42
305.55,-1.75,-1.75,1.64,1.65,-1.64,-1.74,-1.20,-3.39,-3.39,-3.39
308.61,-1.78,-1.77,1.60,1.60,-1.60,-1.71,-1.14,-3.38,-3.37,-3.37
311.69,-1.79,-1.79,1.56,1.55,-1.56,-1.69,-1.08,-3.35,-3.35,-3.34
314.81,-1.81,-1.80,1.50,1.51,-1.52,-1.67,-1.02,-3.33,-3.33,-3.31
317.96,-1.82,-1.82,1.48,1.48,-1.48,-1.64,-0.96,-3.30,-3.30,-3.29
321.14,-1.83,-1.83,1.45,1.44,-1.44,-1.61,-0.90,-3.27,-3.27,-3.27
324.35,-1.85,-1.84,1.41,1.41,-1.40,-1.57,-0.84,-3.25,-3.24,-3.26
327.59,-1.87,-1.87,1.36,1.36,-1.36,-1.54,-0.79,-3.23,-3.23,-3.23
330.87,-1.90,-1.90,1.32,1.32,-1.32,-1.50,-0.73,-3.22,-3.22,-3.21
334.18,-1.94,-1.92,1.26,1.28,-1.28,-1.45,-0.67,-3.22,-3.20,-3.20
337.52,-1.94,-1.94,1.24,1.24,-1.23,-1.41,-0.61,-3.17,-3.17,-3.18
340.90,-1.95,-1.96,1.21,1.19,-1.19,-1.36,-0.55,-3.13,-3.15,-3.15
344.30,-2.00,-1.99,1.14,1.14,-1.13,-1.31,-0.49,-3.13,-3.12,-3.13
347.75,-2.04,-2.03,1.08,1.08,-1.08,-1.25,-0.43,-3.12,-3.11,-3.12
351.23,-2.07,-2.07,1.03,1.03,-1.03,-1.19,-0.38,-3.09,-3.10,-3.10
354.74,-2.11,-2.10,0.97,0.98,-0.98,-1.13,-0.32,-3.08,-3.08,-3.08
358.28,-2.14,-2.14,0.93,0.92,-0.93,-1.07,-0.26,-3.06,-3.07,-3.06
361.87,-2.18,-2.18,0.87,0.87,-0.88,-1.00,-0.20,-3.06,-3.06,-3.04
365.49,-2.22,-2.21,0.81,0.82,-0.84,-0.93,-0.15,-3.06,-3.05,-3.03
369.14,-2.23,-2.22,0.79,0.79,-0.81,-0.86,-0.09,-3.03,-3.03,-3.02
372.83,-2.23,-2.23,0.77,0.77,-0.77,-0.79,-0.03,-3.00,-3.01,-3.00
376.56,-2.24,-2.24,0.76,0.75,-0.74,-0.72,0.03,-2.98,-2.98,-2.99
380.33,-2.26,-2.25,0.71,0.72,-0.70,-0.64,0.08,-2.96,-2.95,-2.96
384.13,-2.29,-2.28,0.67,0.67,-0.66,-0.56,0.14,-2.94,-2.94,-2.96
387.97,-2.32,-2.33,0.63,0.62,-0.61,-0.47,0.19,-2.93,-2.93,-2.95
391.85,-2.39,-2.38,0.55,0.55,-0.55,-0.39,0.25,-2.94,-2.93,-2.94
395.77,-2.45,-2.45,0.47,0.48,-0.48,-0.30,0.31,-2.93,-2.93,-2.92
399.73,-2.53,-2.52,0.39,0.39,-0.40,-0.21,0.36,-2.93,-2.92,-2.91
403.72,-2.59,-2.59,0.32,0.31,-0.31,-0.11,0.42,-2.90,-2.90,-2.90
407.76,-2.67,-2.67,0.23,0.22,-0.22,-0.02,0.47,-2.88,-2.89,-2.89
411.84,-2.76,-2.76,0.12,0.12,-0.11,0.09,0.52,-2.87,-2.87,-2.88
415.96,-2.87,-2.87,0.00,0.00,-0.00,0.19,0.58,-2.87,-2.87,-2.87
420.12,-2.98,-2.98,-0.12,-0.12,0.12,0.30,0.63,-2.86,-2.86,-2.86
424.32,-3.11,-3.10,-0.26,-0.25,0.24,0.41,0.68,-2.86,-2.85,-2.85
428.56,-3.22,-3.21,-0.38,-0.37,0.38,0.52,0.73,-2.84,-2.83,-2.84
432.85,-3.34,-3.34,-0.51,-0.51,0.53,0.64,0.77,-2.81,-2.82,-2.83
437.18,-3.47,-3.48,-0.64,-0.66,0.68,0.76,0.82,-2.79,-2.80,-2.82
441.55,-3.64,-3.63,-0.83,-0.82,0.83,0.88,0.86,-2.81,-2.80,-2.80
445.96,-3.79,-3.78,-0.99,-0.99,0.99,1.00,0.90,-2.80,-2.80,-2.79
450.42,-3.94,-3.93,-1.15,-1.15,1.14,1.12,0.94,-2.79,-2.79,-2.78
454.93,-4.06,-4.06,-1.29,-1.29,1.29,1.24,0.98,-2.76,-2.77,-2.77
459.48,-4.19,-4.19,-1.43,-1.44,1.44,1.36,1.01,-2.74,-2.75,-2.76
464.07,-4.32,-4.31,-1.58,-1.57,1.58,1.47,1.04,-2.74,-2.74,-2.74
468.71,-4.43,-4.42,-1.71,-1.70,1.69,1.57,1.07,-2.73,-2.72,-2.72
473.40,-4.50,-4.50,-1.79,-1.80,1.79,1.67,1.10,-2.70,-2.71,-2.71
478.13,-4.57,-4.57,-1.88,-1.88,1.87,1.75,1.12,-2.70,-2.71,-2.69
482.91,-4.62,-4.61,-1.94,-1.94,1.92,1.82,1.14,-2.70,-2.70,-2.68
487.74,-4.65,-4.62,-1.99,-1.96,1.94,1.88,1.15,-2.70,-2.68,-2.66
