frequency,raw,smoothed,error,error_smoothed,equalization,parametric_eq,fixed_band_eq,equalized_raw,equalized_smoothed,target
20.00,10.24,10.25,2.78,2.79,-2.77,-2.43,-0.96,7.47,7.47,7.46
20.20,10.22,10.22,2.77,2.76,-2.76,-2.43,-0.99,7.46,7.46,7.46
20.40,10.19,10.20,2.74,2.74,-2.74,-2.42,-1.01,7.45,7.45,7.46
20.61,10.17,10.17,2.72,2.72,-2.73,-2.42,-1.04,7.45,7.45,7.46
20.81,10.15,10.15,2.70,2.70,-2.71,-2.42,-1.07,7.45,7.45,7.46
21.02,10.13,10.14,2.68,2.68,-2.69,-2.41,-1.11,7.45,7.45,7.46
21.23,10.12,10.12,2.67,2.67,-2.67,-2.41,-1.14,7.45,7.45,7.45
21.44,10.10,10.11,2.65,2.65,-2.65,-2.40,-1.17,7.46,7.46,7.45
21.66,10.09,10.09,2.64,2.64,-2.63,-2.40,-1.21,7.47,7.46,7.45
21.87,10.06,10.07,2.61,2.61,-2.61,-2.40,-1.24,7.46,7.46,7.45
22.09,10.04,10.04,2.59,2.59,-2.58,-2.39,-1.28,7.46,7.46,7.45
22.31,10.01,10.01,2.56,2.56,-2.56,-2.39,-1.31,7.46,7.46,7.45
22.54,9.98,9.98,2.53,2.53,-2.53,-2.38,-1.35,7.45,7.45,7.45
22.76,9.95,9.95,2.50,2.50,-2.51,-2.38,-1.39,7.44,7.44,7.45
22.99,9.92,9.93,2.48,2.48,-2.49,-2.37,-1.43,7.43,7.43,7.45
23.22,9.91,9.91,2.47,2.46,-2.48,-2.37,-1.47,7.43,7.43,7.45
23.45,9.90,9.91,2.46,2.46,-2.47,-2.37,-1.51,7.43,7.43,7.45
23.69,9.90,9.91,2.46,2.46,-2.47,-2.36,-1.56,7.44,7.44,7.44
23.92,9.91,9.91,2.47,2.46,-2.46,-2.36,-1.60,7.45,7.45,7.44
24.16,9.90,9.91,2.46,2.46,-2.45,-2.35,-1.64,7.45,7.45,7.44
24.40,9.89,9.90,2.45,2.46,-2.44,-2.35,-1.69,7.45,7.46,7.44
24.65,9.88,9.88,2.44,2.44,-2.42,-2.34,-1.74,7.46,7.46,7.44
24.89,9.85,9.85,2.41,2.41,-2.40,-2.34,-1.78,7.45,7.45,7.44
25.14,9.81,9.82,2.38,2.38,-2.38,-2.33,-1.83,7.44,7.44,7.44
25.39,9.77,9.78,2.34,2.34,-2.35,-2.33,-1.87,7.42,7.43,7.44
25.65,9.74,9.74,2.31,2.31,-2.32,-2.32,-1.92,7.42,7.42,7.43
25.91,9.71,9.72,2.28,2.28,-2.29,-2.32,-1.97,7.42,7.42,7.43
26.16,9.69,9.69,2.26,2.26,-2.27,-2.31,-2.01,7.43,7.43,7.43
26.43,9.67,9.67,2.24,2.24,-2.24,-2.31,-2.06,7.43,7.43,7.43
26.69,9.65,9.65,2.23,2.23,-2.22,-2.30,-2.11,7.43,7.43,7.43
26.96,9.63,9.63,2.21,2.21,-2.20,-2.30,-2.15,7.43,7.43,7.43
27.23,9.61,9.61,2.19,2.19,-2.18,-2.29,-2.20,7.43,7.43,7.42
27.50,9.59,9.59,2.17,2.17,-2.17,-2.29,-2.24,7.43,7.42,7.42
27.77,9.57,9.57,2.15,2.15,-2.16,-2.28,-2.28,7.42,7.42,7.42
28.05,9.55,9.56,2.14,2.14,-2.15,-2.28,-2.32,7.41,7.41,7.42
28.33,9.55,9.55,2.14,2.13,-2.14,-2.27,-2.36,7.41,7.41,7.42
28.62,9.54,9.55,2.13,2.13,-2.14,-2.26,-2.40,7.40,7.41,7.41
28.90,9.55,9.55,2.14,2.14,-2.14,-2.26,-2.43,7.41,7.41,7.41
29.19,9.56,9.56,2.15,2.15,-2.15,-2.25,-2.46,7.42,7.41,7.41
29.48,9.56,9.56,2.16,2.16,-2.15,-2.25,-2.49,7.41,7.41,7.41
29.78,9.56,9.57,2.16,2.16,-2.16,-2.24,-2.52,7.41,7.41,7.40
30.08,9.56,9.57,2.16,2.16,-2.16,-2.24,-2.54,7.41,7.41,7.40
30.38,9.56,9.56,2.16,2.16,-2.15,-2.23,-2.56,7.41,7.41,7.40
30.68,9.55,9.55,2.16,2.16,-2.15,-2.23,-2.58,7.41,7.40,7.40
30.99,9.53,9.54,2.14,2.14,-2.14,-2.22,-2.60,7.39,7.40,7.39
31.30,9.52,9.52,2.13,2.13,-2.13,-2.22,-2.61,7.39,7.39,7.39
31.61,9.50,9.50,2.12,2.12,-2.12,-2.21,-2.61,7.38,7.38,7.39
31.93,9.48,9.49,2.10,2.11,-2.11,-2.21,-2.62,7.37,7.38,7.38
32.24,9.48,9.48,2.10,2.10,-2.11,-2.21,-2.62,7.38,7.37,7.38
32.57,9.47,9.48,2.10,2.10,-2.10,-2.20,-2.62,7.37,7.37,7.38
32.89,9.47,9.47,2.10,2.10,-2.10,-2.20,-2.62,7.37,7.37,7.37
33.22,9.47,9.47,2.10,2.10,-2.10,-2.19,-2.61,7.37,7.37,7.37
33.55,9.47,9.47,2.11,2.11,-2.10,-2.19,-2.60,7.37,7.37,7.37
33.89,9.47,9.47,2.11,2.11,-2.11,-2.19,-2.59,7.37,7.37,7.36
34.23,9.46,9.47,2.11,2.11,-2.11,-2.18,-2.57,7.36,7.36,7.36
34.57,9.46,9.46,2.11,2.11,-2.10,-2.18,-2.55,7.36,7.36,7.35
34.92,9.45,9.45,2.10,2.10,-2.10,-2.18,-2.54,7.35,7.35,7.35
35.27,9.44,9.44,2.10,2.10,-2.10,-2.17,-2.52,7.34,7.35,7.34
35.62,9.43,9.43,2.09,2.09,-2.10,-2.17,-2.50,7.34,7.34,7.34
35.97,9.42,9.42,2.09,2.09,-2.09,-2.17,-2.48,7.33,7.33,7.33
36.33,9.41,9.42,2.08,2.09,-2.09,-2.17,-2.45,7.32,7.32,7.33
36.70,9.41,9.41,2.09,2.09,-2.09,-2.16,-2.43,7.32,7.32,7.32
37.06,9.41,9.41,2.10,2.09,-2.09,-2.16,-2.41,7.32,7.32,7.32
37.43,9.40,9.41,2.09,2.10,-2.09,-2.16,-2.38,7.31,7.32,7.31
37.81,9.40,9.40,2.10,2.10,-2.09,-2.16,-2.36,7.31,7.31,7.31
38.19,9.39,9.39,2.09,2.09,-2.09,-2.16,-2.34,7.30,7.30,7.30
38.57,9.38,9.38,2.09,2.09,-2.09,-2.16,-2.31,7.29,7.29,7.29
38.95,9.37,9.37,2.09,2.09,-2.09,-2.16,-2.29,7.28,7.28,7.29
39.34,9.36,9.37,2.08,2.09,-2.09,-2.16,-2.27,7.27,7.28,7.28
39.74,9.36,9.36,2.09,2.09,-2.09,-2.16,-2.25,7.27,7.27,7.27
40.14,9.35,9.36,2.09,2.09,-2.09,-2.16,-2.23,7.26,7.26,7.26
40.54,9.35,9.35,2.10,2.10,-2.10,-2.16,-2.21,7.26,7.26,7.26
40.94,9.35,9.35,2.11,2.10,-2.10,-2.17,-2.20,7.25,7.25,7.25
41.35,9.34,9.35,2.10,2.11,-2.11,-2.17,-2.18,7.24,7.24,7.24
41.76,9.34,9.34,2.11,2.11,-2.11,-2.17,-2.17,7.23,7.23,7.23
42.18,9.34,9.34,2.12,2.12,-2.12,-2.17,-2.16,7.22,7.22,7.22
42.60,9.34,9.34,2.13,2.13,-2.13,-2.18,-2.14,7.21,7.21,7.21
43.03,9.34,9.35,2.14,2.14,-2.15,-2.18,-2.14,7.20,7.20,7.20
43.46,9.35,9.35,2.16,2.16,-2.16,-2.18,-2.13,7.20,7.19,7.19
43.90,9.35,9.36,2.17,2.17,-2.17,-2.19,-2.12,7.18,7.19,7.18
44.33,9.36,9.36,2.19,2.19,-2.18,-2.19,-2.12,7.18,7.18,7.17
44.78,9.36,9.36,2.20,2.20,-2.20,-2.20,-2.11,7.16,7.16,7.16
45.23,9.36,9.36,2.22,2.22,-2.22,-2.20,-2.11,7.14,7.15,7.15
45.68,9.36,9.37,2.23,2.23,-2.24,-2.21,-2.11,7.13,7.13,7.14
46.13,9.37,9.37,2.25,2.25,-2.26,-2.21,-2.11,7.12,7.11,7.12
46.60,9.38,9.39,2.27,2.27,-2.28,-2.22,-2.12,7.11,7.11,7.11
47.06,9.39,9.40,2.30,2.30,-2.29,-2.22,-2.12,7.10,7.10,7.10
47.53,9.41,9.41,2.33,2.32,-2.31,-2.23,-2.13,7.10,7.09,7.08
48.01,9.40,9.41,2.33,2.34,-2.33,-2.24,-2.14,7.08,7.08,7.07
48.49,9.40,9.40,2.35,2.35,-2.34,-2.24,-2.15,7.07,7.06,7.06
48.97,9.39,9.39,2.35,2.35,-2.35,-2.25,-2.16,7.04,7.04,7.04
49.46,9.37,9.38,2.35,2.36,-2.36,-2.26,-2.17,7.01,7.02,7.02
49.96,9.37,9.37,2.37,2.36,-2.37,-2.26,-2.18,7.00,7.00,7.01
50.46,9.36,9.37,2.37,2.38,-2.39,-2.27,-2.19,6.98,6.98,6.99
50.96,9.36,9.37,2.39,2.39,-2.40,-2.28,-2.21,6.96,6.97,6.97
51.47,9.37,9.37,2.42,2.42,-2.42,-2.29,-2.23,6.96,6.95,6.96
51.99,9.37,9.37,2.44,2.44,-2.43,-2.30,-2.24,6.94,6.94,6.94
52.51,9.37,9.37,2.46,2.46,-2.45,-2.30,-2.26,6.93,6.93,6.92
53.03,9.36,9.36,2.47,2.46,-2.46,-2.31,-2.28,6.91,6.90,6.90
53.56,9.34,9.35,2.47,2.47,-2.47,-2.32,-2.30,6.88,6.88,6.88
54.10,9.32,9.33,2.47,2.47,-2.47,-2.33,-2.31,6.85,6.85,6.86
54.64,9.30,9.31,2.47,2.47,-2.47,-2.34,-2.33,6.83,6.83,6.83
55.18,9.28,9.28,2.47,2.47,-2.47,-2.35,-2.35,6.82,6.81,6.81
55.74,9.25,9.25,2.47,2.46,-2.46,-2.35,-2.37,6.79,6.79,6.79
56.29,9.21,9.22,2.45,2.46,-2.45,-2.36,-2.39,6.76,6.77,6.76
56.86,9.18,9.18,2.45,2.44,-2.44,-2.37,-2.41,6.74,6.74,6.74
57.42,9.14,9.14,2.43,2.43,-2.43,-2.38,-2.42,6.71,6.71,6.71
58.00,9.10,9.11,2.42,2.42,-2.43,-2.39,-2.44,6.68,6.68,6.69
58.58,9.07,9.07,2.41,2.41,-2.42,-2.40,-2.45,6.65,6.65,6.66
59.16,9.04,9.05,2.41,2.41,-2.42,-2.41,-2.47,6.62,6.62,6.63
59.76,9.02,9.02,2.42,2.42,-2.43,-2.42,-2.48,6.60,6.60,6.60
60.35,9.00,9.00,2.43,2.43,-2.43,-2.42,-2.49,6.57,6.57,6.57
60.96,8.98,8.99,2.44,2.44,-2.44,-2.43,-2.50,6.54,6.55,6.54
61.57,8.96,8.96,2.45,2.45,-2.45,-2.44,-2.51,6.52,6.52,6.51
62.18,8.94,8.94,2.47,2.46,-2.45,-2.45,-2.51,6.49,6.48,6.48
62.80,8.90,8.91,2.46,2.46,-2.46,-2.46,-2.52,6.45,6.45,6.44
63.43,8.87,8.87,2.46,2.46,-2.46,-2.47,-2.52,6.41,6.41,6.41
64.07,8.83,8.83,2.46,2.46,-2.46,-2.47,-2.52,6.38,6.38,6.38
64.71,8.79,8.79,2.45,2.45,-2.45,-2.48,-2.52,6.34,6.34,6.34
65.35,8.74,8.75,2.44,2.44,-2.45,-2.49,-2.52,6.30,6.30,6.30
66.01,8.70,8.70,2.44,2.44,-2.44,-2.50,-2.52,6.26,6.26,6.26
66.67,8.65,8.66,2.43,2.43,-2.43,-2.51,-2.52,6.22,6.22,6.23
67.33,8.61,8.61,2.43,2.43,-2.43,-2.51,-2.51,6.19,6.18,6.18
68.01,8.56,8.57,2.42,2.42,-2.42,-2.52,-2.50,6.14,6.14,6.14
68.69,8.52,8.52,2.42,2.42,-2.42,-2.53,-2.50,6.10,6.10,6.10
69.37,8.47,8.48,2.41,2.42,-2.42,-2.54,-2.49,6.05,6.06,6.06
70.07,8.43,8.43,2.42,2.42,-2.42,-2.54,-2.48,6.02,6.02,6.01
70.77,8.39,8.39,2.42,2.42,-2.42,-2.55,-2.47,5.98,5.97,5.97
71.48,8.34,8.34,2.42,2.42,-2.42,-2.56,-2.47,5.92,5.93,5.92
72.19,8.29,8.30,2.42,2.42,-2.42,-2.57,-2.46,5.87,5.88,5.88
72.91,8.25,8.25,2.43,2.42,-2.42,-2.57,-2.45,5.83,5.83,5.83
73.64,8.20,8.21,2.42,2.43,-2.43,-2.58,-2.44,5.78,5.78,5.78
74.38,8.16,8.16,2.44,2.43,-2.43,-2.59,-2.44,5.73,5.73,5.73
75.12,8.11,8.11,2.44,2.44,-2.44,-2.59,-2.43,5.68,5.68,5.68
75.87,8.06,8.07,2.44,2.44,-2.44,-2.60,-2.42,5.62,5.63,5.63
76.63,8.02,8.02,2.45,2.45,-2.45,-2.61,-2.42,5.58,5.57,5.57
77.40,7.97,7.97,2.46,2.46,-2.45,-2.61,-2.42,5.52,5.52,5.52
78.17,7.92,7.92,2.46,2.46,-2.46,-2.62,-2.41,5.46,5.46,5.46
78.95,7.87,7.87,2.47,2.47,-2.47,-2.63,-2.41,5.41,5.41,5.41
79.74,7.82,7.82,2.48,2.48,-2.48,-2.63,-2.41,5.35,5.35,5.35
80.54,7.77,7.77,2.48,2.48,-2.48,-2.64,-2.41,5.29,5.29,5.29
81.35,7.72,7.72,2.49,2.49,-2.49,-2.65,-2.42,5.23,5.23,5.23
82.16,7.67,7.67,2.50,2.50,-2.50,-2.65,-2.42,5.17,5.17,5.17
82.98,7.62,7.62,2.51,2.51,-2.51,-2.66,-2.43,5.11,5.11,5.11
83.81,7.57,7.57,2.53,2.52,-2.53,-2.67,-2.44,5.05,5.05,5.05
84.65,7.52,7.52,2.54,2.54,-2.54,-2.67,-2.45,4.98,4.98,4.99
85.50,7.47,7.48,2.55,2.56,-2.56,-2.68,-2.46,4.92,4.92,4.92
86.35,7.43,7.43,2.58,2.57,-2.57,-2.69,-2.47,4.86,4.85,4.86
87.22,7.38,7.38,2.59,2.59,-2.59,-2.69,-2.49,4.79,4.79,4.79
88.09,7.33,7.34,2.61,2.61,-2.61,-2.70,-2.51,4.72,4.73,4.73
88.97,7.29,7.29,2.63,2.63,-2.63,-2.71,-2.53,4.66,4.66,4.66
89.86,7.24,7.24,2.65,2.65,-2.65,-2.72,-2.55,4.60,4.60,4.59
90.76,7.19,7.19,2.67,2.67,-2.66,-2.72,-2.57,4.53,4.53,4.52
91.66,7.13,7.14,2.68,2.68,-2.68,-2.73,-2.60,4.46,4.46,4.46
92.58,7.08,7.08,2.70,2.69,-2.69,-2.74,-2.63,4.39,4.39,4.39
93.51,7.02,7.03,2.71,2.71,-2.71,-2.75,-2.66,4.31,4.31,4.32
94.44,6.97,6.97,2.73,2.73,-2.73,-2.76,-2.69,4.24,4.24,4.25
95.39,6.92,6.92,2.75,2.75,-2.75,-2.77,-2.72,4.17,4.17,4.18
96.34,6.87,6.88,2.77,2.77,-2.78,-2.78,-2.75,4.09,4.10,4.10
97.30,6.83,6.83,2.80,2.80,-2.81,-2.79,-2.79,4.03,4.03,4.03
98.28,6.79,6.80,2.83,2.84,-2.83,-2.80,-2.83,3.96,3.96,3.96
99.26,6.76,6.76,2.88,2.87,-2.86,-2.81,-2.87,3.90,3.90,3.89
100.25,6.71,6.72,2.90,2.90,-2.89,-2.82,-2.91,3.82,3.82,3.82
101.25,6.67,6.67,2.93,2.93,-2.92,-2.83,-2.95,3.75,3.75,3.74
102.27,6.61,6.62,2.94,2.95,-2.95,-2.84,-2.99,3.67,3.67,3.67
103.29,6.56,6.57,2.97,2.97,-2.97,-2.85,-3.03,3.59,3.60,3.60
104.32,6.51,6.51,2.99,2.99,-2.99,-2.87,-3.07,3.52,3.52,3.52
105.37,6.46,6.46,3.01,3.01,-3.01,-2.88,-3.11,3.45,3.45,3.45
106.42,6.41,6.41,3.04,3.04,-3.04,-2.89,-3.16,3.38,3.38,3.38
107.48,6.36,6.36,3.06,3.06,-3.06,-2.91,-3.20,3.31,3.31,3.31
108.56,6.31,6.31,3.08,3.08,-3.08,-2.92,-3.24,3.23,3.23,3.23
109.64,6.26,6.26,3.10,3.10,-3.10,-2.94,-3.28,3.16,3.16,3.16
110.74,6.21,6.21,3.13,3.13,-3.13,-2.95,-3.32,3.09,3.09,3.09
111.85,6.16,6.16,3.15,3.15,-3.15,-2.97,-3.36,3.02,3.02,3.01
112.97,6.11,6.11,3.17,3.17,-3.17,-2.99,-3.40,2.94,2.94,2.94
114.10,6.06,6.06,3.19,3.19,-3.19,-3.01,-3.43,2.87,2.87,2.87
115.24,6.01,6.01,3.21,3.21,-3.22,-3.02,-3.46,2.80,2.80,2.80
116.39,5.96,5.97,3.23,3.24,-3.24,-3.04,-3.49,2.72,2.73,2.73
117.55,5.92,5.92,3.26,3.26,-3.26,-3.06,-3.52,2.66,2.66,2.66
118.73,5.87,5.87,3.29,3.29,-3.28,-3.08,-3.54,2.59,2.59,2.59
119.92,5.82,5.82,3.30,3.31,-3.30,-3.10,-3.56,2.52,2.52,2.52
121.12,5.77,5.77,3.32,3.32,-3.32,-3.12,-3.58,2.45,2.45,2.45
122.33,5.71,5.72,3.33,3.33,-3.34,-3.14,-3.59,2.38,2.38,2.38
123.55,5.66,5.66,3.35,3.35,-3.35,-3.16,-3.60,2.31,2.31,2.31
124.79,5.61,5.61,3.37,3.37,-3.37,-3.18,-3.60,2.25,2.25,2.25
126.03,5.56,5.56,3.38,3.38,-3.38,-3.21,-3.60,2.18,2.18,2.18
127.29,5.51,5.51,3.40,3.39,-3.39,-3.23,-3.60,2.12,2.12,2.12
128.57,5.45,5.46,3.40,3.41,-3.40,-3.25,-3.59,2.05,2.05,2.05
129.85,5.40,5.40,3.42,3.42,-3.42,-3.27,-3.58,1.99,1.99,1.99
131.15,5.35,5.35,3.43,3.42,-3.42,-3.30,-3.57,1.93,1.92,1.92
132.46,5.29,5.29,3.43,3.43,-3.43,-3.32,-3.55,1.86,1.86,1.86
133.79,5.23,5.24,3.43,3.44,-3.44,-3.34,-3.53,1.80,1.80,1.80
135.12,5.18,5.18,3.44,3.44,-3.44,-3.36,-3.50,1.74,1.74,1.74
136.48,5.12,5.13,3.44,3.45,-3.44,-3.38,-3.48,1.68,1.68,1.68
137.84,5.07,5.07,3.45,3.45,-3.44,-3.41,-3.45,1.63,1.63,1.62
139.22,5.01,5.01,3.45,3.45,-3.45,-3.43,-3.42,1.57,1.57,1.57
140.61,4.95,4.95,3.45,3.45,-3.44,-3.45,-3.38,1.51,1.51,1.51
142.02,4.89,4.89,3.44,3.44,-3.44,-3.47,-3.35,1.45,1.45,1.45
143.44,4.83,4.84,3.44,3.44,-3.44,-3.49,-3.31,1.39,1.40,1.40
144.87,4.78,4.78,3.44,3.44,-3.44,-3.51,-3.28,1.34,1.34,1.34
146.32,4.73,4.73,3.44,3.44,-3.44,-3.53,-3.24,1.30,1.29,1.29
147.78,4.67,4.68,3.43,3.44,-3.43,-3.54,-3.20,1.24,1.24,1.24
149.26,4.62,4.62,3.43,3.43,-3.43,-3.56,-3.16,1.19,1.19,1.19
150.75,4.57,4.57,3.43,3.43,-3.43,-3.57,-3.13,1.15,1.14,1.14
152.26,4.51,4.52,3.42,3.42,-3.42,-3.59,-3.09,1.09,1.09,1.09
153.78,4.46,4.46,3.42,3.42,-3.42,-3.60,-3.05,1.05,1.04,1.04
155.32,4.40,4.41,3.41,3.41,-3.41,-3.61,-3.02,0.99,1.00,1.00
156.88,4.35,4.35,3.40,3.40,-3.41,-3.62,-2.98,0.95,0.95,0.95
158.44,4.30,4.30,3.40,3.40,-3.40,-3.63,-2.95,0.90,0.90,0.91
160.03,4.25,4.25,3.39,3.39,-3.39,-3.63,-2.92,0.86,0.86,0.86
161.63,4.20,4.20,3.39,3.39,-3.39,-3.64,-2.89,0.82,0.82,0.81
163.24,4.15,4.15,3.38,3.38,-3.38,-3.64,-2.86,0.77,0.78,0.77
164.88,4.10,4.10,3.37,3.37,-3.37,-3.64,-2.83,0.73,0.73,0.73
166.53,4.05,4.05,3.36,3.36,-3.36,-3.64,-2.81,0.69,0.69,0.69
168.19,4.00,4.00,3.35,3.35,-3.35,-3.64,-2.78,0.65,0.65,0.65
169.87,3.95,3.95,3.34,3.34,-3.34,-3.63,-2.76,0.61,0.61,0.62
171.57,3.90,3.90,3.32,3.32,-3.33,-3.63,-2.74,0.58,0.58,0.58
173.29,3.85,3.85,3.31,3.31,-3.31,-3.62,-2.73,0.54,0.54,0.54
175.02,3.80,3.80,3.29,3.30,-3.29,-3.61,-2.71,0.51,0.51,0.51
176.77,3.75,3.75,3.28,3.28,-3.28,-3.59,-2.70,0.48,0.48,0.48
178.54,3.70,3.70,3.26,3.26,-3.26,-3.58,-2.69,0.45,0.44,0.44
180.32,3.64,3.65,3.23,3.24,-3.24,-3.56,-2.68,0.41,0.41,0.41
182.13,3.59,3.59,3.21,3.21,-3.21,-3.54,-2.67,0.38,0.38,0.38
183.95,3.54,3.54,3.19,3.19,-3.19,-3.52,-2.67,0.35,0.35,0.35
185.79,3.48,3.49,3.16,3.17,-3.17,-3.50,-2.67,0.32,0.32,0.32
187.65,3.43,3.43,3.14,3.14,-3.14,-3.48,-2.67,0.29,0.29,0.29
189.52,3.38,3.38,3.12,3.12,-3.12,-3.45,-2.67,0.26,0.26,0.27
191.42,3.33,3.33,3.09,3.09,-3.10,-3.42,-2.67,0.24,0.24,0.24
193.33,3.28,3.28,3.07,3.07,-3.07,-3.39,-2.68,0.21,0.21,0.21
195.27,3.23,3.23,3.05,3.05,-3.04,-3.36,-2.68,0.19,0.19,0.19
197.22,3.18,3.18,3.02,3.02,-3.01,-3.33,-2.69,0.17,0.17,0.16
199.19,3.12,3.13,2.98,2.99,-2.98,-3.30,-2.70,0.14,0.14,0.14
201.18,3.06,3.06,2.95,2.95,-2.94,-3.27,-2.71,0.12,0.12,0.12
203.19,3.00,3.00,2.91,2.91,-2.90,-3.23,-2.72,0.10,0.10,0.10
205.23,2.93,2.94,2.86,2.86,-2.86,-3.20,-2.74,0.07,0.08,0.07
207.28,2.87,2.87,2.82,2.82,-2.82,-3.16,-2.75,0.06,0.06,0.05
209.35,2.80,2.80,2.77,2.77,-2.77,-3.12,-2.76,0.04,0.04,0.03
211.44,2.74,2.74,2.73,2.73,-2.72,-3.08,-2.78,0.02,0.02,0.01
213.56,2.67,2.68,2.68,2.68,-2.68,-3.05,-2.79,-0.01,-0.00,-0.01
215.69,2.62,2.62,2.65,2.64,-2.65,-3.01,-2.81,-0.02,-0.03,-0.02
217.85,2.56,2.57,2.61,2.61,-2.62,-2.97,-2.82,-0.06,-0.05,-0.04
220.03,2.52,2.53,2.58,2.59,-2.60,-2.93,-2.83,-0.08,-0.07,-0.06
222.23,2.50,2.50,2.58,2.58,-2.60,-2.89,-2.84,-0.09,-0.09,-0.08
224.45,2.49,2.49,2.59,2.59,-2.60,-2.85,-2.86,-0.11,-0.11,-0.09
226.70,2.49,2.50,2.60,2.60,-2.61,-2.81,-2.86,-0.12,-0.11,-0.11
228.96,2.50,2.50,2.63,2.62,-2.62,-2.77,-2.87,-0.12,-0.12,-0.12
231.25,2.51,2.51,2.65,2.65,-2.64,-2.73,-2.88,-0.12,-0.13,-0.14
233.57,2.51,2.51,2.66,2.67,-2.65,-2.70,-2.88,-0.14,-0.14,-0.15
235.90,2.50,2.50,2.68,2.67,-2.65,-2.66,-2.88,-0.15,-0.15,-0.17
238.26,2.47,2.48,2.66,2.66,-2.65,-2.62,-2.88,-0.18,-0.17,-0.19
240.64,2.44,2.44,2.64,2.64,-2.64,-2.59,-2.88,-0.19,-0.19,-0.20
243.05,2.40,2.41,2.62,2.62,-2.61,-2.55,-2.87,-0.21,-0.21,-0.21
245.48,2.36,2.36,2.59,2.58,-2.58,-2.52,-2.86,-0.22,-0.22,-0.22
247.93,2.31,2.31,2.55,2.54,-2.54,-2.48,-2.84,-0.23,-0.23,-0.23
250.41,2.25,2.26,2.50,2.50,-2.51,-2.45,-2.82,-0.25,-0.25,-0.25
252.92,2.20,2.21,2.46,2.46,-2.47,-2.42,-2.80,-0.26,-0.26,-0.26
255.45,2.16,2.16,2.43,2.43,-2.43,-2.39,-2.78,-0.27,-0.27,-0.27
258.00,2.12,2.12,2.40,2.40,-2.40,-2.36,-2.75,-0.28,-0.28,-0.28
260.58,2.08,2.09,2.37,2.37,-2.38,-2.33,-2.72,-0.30,-0.29,-0.29
263.19,2.06,2.06,2.36,2.36,-2.36,-2.30,-2.69,-0.30,-0.30,-0.29
265.82,2.04,2.04,2.35,2.35,-2.35,-2.28,-2.65,-0.31,-0.31,-0.30
268.48,2.02,2.03,2.34,2.34,-2.35,-2.25,-2.61,-0.32,-0.32,-0.31
271.16,2.02,2.02,2.34,2.34,-2.34,-2.23,-2.57,-0.32,-0.32,-0.32
273.87,2.01,2.01,2.34,2.34,-2.34,-2.20,-2.52,-0.32,-0.32,-0.33
276.61,2.00,2.00,2.34,2.34,-2.33,-2.18,-2.47,-0.32,-0.32,-0.34
279.38,1.98,1.98,2.33,2.33,-2.31,-2.16,-2.42,-0.33,-0.33,-0.34
282.17,1.95,1.96,2.30,2.30,-2.29,-2.14,-2.37,-0.34,-0.34,-0.35
284.99,1.92,1.92,2.27,2.27,-2.27,-2.12,-2.32,-0.34,-0.34,-0.35
287.84,1.88,1.88,2.23,2.23,-2.23,-2.10,-2.26,-0.35,-0.35,-0.34
290.72,1.84,1.84,2.19,2.19,-2.20,-2.08,-2.21,-0.36,-0.35,-0.35
293.63,1.80,1.80,2.16,2.16,-2.16,-2.06,-2.15,-0.36,-0.36,-0.36
296.57,1.76,1.76,2.12,2.12,-2.12,-2.04,-2.09,-0.35,-0.35,-0.35
299.53,1.72,1.72,2.07,2.08,-2.08,-2.01,-2.04,-0.35,-0.35,-0.35
302.53,1.68,1.68,2.04,2.03,-2.04,-1.99,-1.98,-0.35,-0.35,-0.35
305.55,1.64,1.64,1.99,1.99,-2.00,-1.96,-1.92,-0.35,-0.35,-0.35
308.61,1.60,1.60,1.96,1.96,-1.96,-1.93,-1.86,-0.35,-0.35,-0.35
311.69,1.56,1.56,1.91,1.91,-1.92,-1.90,-1.80,-0.35,-0.35,-0.35
314.81,1.52,1.52,1.88,1.88,-1.87,-1.87,-1.74,-0.35,-0.35,-0.35
317.96,1.48,1.48,1.83,1.83,-1.83,-1.83,-1.69,-0.35,-0.35,-0.35
321.14,1.44,1.44,1.80,1.79,-1.79,-1.79,-1.63,-0.35,-0.35,-0.35
324.35,1.40,1.40,1.75,1.75,-1.75,-1.75,-1.57,-0.35,-0.35,-0.35
327.59,1.36,1.36,1.70,1.71,-1.71,-1.71,-1.52,-0.34,-0.34,-0.34
330.87,1.32,1.32,1.67,1.67,-1.66,-1.67,-1.46,-0.34,-0.34,-0.35
334.18,1.28,1.28,1.62,1.62,-1.62,-1.62,-1.41,-0.34,-0.34,-0.34
337.52,1.23,1.24,1.58,1.58,-1.58,-1.58,-1.35,-0.34,-0.34,-0.34
340.90,1.19,1.19,1.53,1.53,-1.53,-1.53,-1.30,-0.34,-0.34,-0.34
344.30,1.15,1.15,1.48,1.48,-1.49,-1.48,-1.25,-0.33,-0.33,-0.33
347.75,1.11,1.11,1.44,1.44,-1.44,-1.43,-1.19,-0.33,-0.33,-0.32
351.23,1.07,1.08,1.40,1.40,-1.40,-1.38,-1.14,-0.33,-0.32,-0.33
354.74,1.04,1.04,1.35,1.36,-1.36,-1.33,-1.09,-0.31,-0.31,-0.31
358.28,1.00,1.00,1.32,1.31,-1.31,-1.29,-1.04,-0.31,-0.31,-0.31
361.87,0.96,0.96,1.27,1.27,-1.27,-1.24,-1.00,-0.30,-0.30,-0.30
365.49,0.92,0.92,1.22,1.23,-1.22,-1.19,-0.95,-0.30,-0.30,-0.30
369.14,0.88,0.88,1.18,1.18,-1.18,-1.15,-0.90,-0.29,-0.29,-0.30
372.83,0.84,0.84,1.13,1.13,-1.13,-1.10,-0.86,-0.29,-0.29,-0.28
376.56,0.79,0.80,1.08,1.08,-1.08,-1.06,-0.81,-0.29,-0.29,-0.29
380.33,0.75,0.75,1.03,1.03,-1.04,-1.02,-0.77,-0.28,-0.28,-0.28
384.13,0.71,0.71,0.99,0.99,-0.99,-0.98,-0.72,-0.28,-0.28,-0.28
387.97,0.67,0.68,0.95,0.95,-0.95,-0.93,-0.68,-0.27,-0.27,-0.27
391.85,0.64,0.64,0.90,0.91,-0.90,-0.89,-0.64,-0.26,-0.26,-0.25
395.77,0.61,0.61,0.87,0.86,-0.86,-0.86,-0.60,-0.25,-0.25,-0.26
399.73,0.57,0.57,0.82,0.82,-0.82,-0.82,-0.56,-0.24,-0.24,-0.25
403.72,0.53,0.53,0.77,0.78,-0.77,-0.78,-0.52,-0.24,-0.24,-0.24
407.76,0.49,0.49,0.74,0.73,-0.73,-0.74,-0.48,-0.24,-0.24,-0.24
411.84,0.45,0.45,0.69,0.69,-0.69,-0.71,-0.44,-0.23,-0.23,-0.23
415.96,0.41,0.41,0.64,0.64,-0.64,-0.67,-0.40,-0.23,-0.23,-0.23
420.12,0.37,0.38,0.60,0.60,-0.60,-0.64,-0.37,-0.23,-0.23,-0.23
424.32,0.34,0.34,0.56,0.56,-0.57,-0.60,-0.33,-0.22,-0.22,-0.22
428.56,0.31,0.32,0.52,0.53,-0.53,-0.57,-0.29,-0.22,-0.22,-0.21
432.85,0.29,0.29,0.50,0.50,-0.50,-0.54,-0.26,-0.21,-0.21,-0.20
437.18,0.27,0.27,0.48,0.47,-0.47,-0.50,-0.23,-0.20,-0.20,-0.20
441.55,0.25,0.25,0.45,0.45,-0.44,-0.47,-0.19,-0.19,-0.19,-0.19
445.96,0.23,0.24,0.42,0.42,-0.42,-0.44,-0.16,-0.18,-0.18,-0.19
450.42,0.22,0.22,0.39,0.39,-0.39,-0.41,-0.13,-0.17,-0.17,-0.17
454.93,0.20,0.20,0.36,0.36,-0.36,-0.38,-0.10,-0.16,-0.16,-0.16
459.48,0.18,0.18,0.33,0.33,-0.33,-0.35,-0.07,-0.15,-0.15,-0.15
464.07,0.15,0.15,0.30,0.30,-0.30,-0.31,-0.04,-0.14,-0.14,-0.15
468.71,0.12,0.12,0.27,0.27,-0.26,-0.28,-0.01,-0.14,-0.14,-0.14
473.40,0.09,0.09,0.23,0.23,-0.23,-0.25,0.02,-0.13,-0.13,-0.13
478.13,0.06,0.06,0.19,0.19,-0.19,-0.22,0.05,-0.13,-0.13,-0.12
482.91,0.03,0.03,0.15,0.15,-0.15,-0.19,0.07,-0.12,-0.12,-0.11
487.74,0.00,0.00,0.11,0.11,-0.11,-0.16,0.10,-0.11,-0.11,-0.11
492.62,-0.03,-0.03,0.07,0.07,-0.07,-0.13,0.12,-0.10,-0.10,-0.10
497.55,-0.06,-0.06,0.03,0.03,-0.03,-0.09,0.15,-0.09,-0.09,-0.09
502.52,-0.09,-0.09,-0.01,-0.01,0.01,-0.06,0.17,-0.08,-0.07,-0.08
507.55,-0.12,-0.11,-0.06,-0.05,0.05,-0.03,0.19,-0.07,-0.06,-0.06
512.62,-0.14,-0.14,-0.09,-0.09,0.09,0.00,0.21,-0.05,-0.05,-0.05
517.75,-0.17,-0.17,-0.13,-0.13,0.13,0.04,0.24,-0.04,-0.04,-0.04
