frequency,raw
20.00,5.60
20.20,5.63
20.40,5.66
20.61,5.70
20.81,5.73
21.02,5.76
21.23,5.80
21.44,5.83
21.66,5.87
21.87,5.91
22.09,5.95
22.31,5.98
22.54,6.01
22.76,6.04
22.99,6.07
23.22,6.10
23.45,6.13
23.69,6.16
23.92,6.19
24.16,6.22
24.40,6.26
24.65,6.29
24.89,6.33
25.14,6.36
25.39,6.39
25.65,6.42
25.91,6.45
26.16,6.48
26.43,6.51
26.69,6.54
26.96,6.57
27.23,6.60
27.50,6.63
27.77,6.67
28.05,6.70
28.33,6.73
28.62,6.76
28.90,6.79
29.19,6.82
29.48,6.85
29.78,6.88
30.08,6.91
30.38,6.94
30.68,6.97
30.99,7.00
31.30,7.03
31.61,7.06
31.93,7.08
32.24,7.11
32.57,7.14
32.89,7.17
33.22,7.20
33.55,7.22
33.89,7.25
34.23,7.27
34.57,7.29
34.92,7.32
35.27,7.34
35.62,7.36
35.97,7.39
36.33,7.41
36.70,7.44
37.06,7.46
37.43,7.49
37.81,7.51
38.19,7.53
38.57,7.55
38.95,7.57
39.34,7.59
39.74,7.62
40.14,7.64
40.54,7.66
40.94,7.68
41.35,7.70
41.76,7.71
42.18,7.73
42.60,7.74
43.03,7.76
43.46,7.78
43.90,7.80
44.33,7.82
44.78,7.84
45.23,7.86
45.68,7.88
46.13,7.90
46.60,7.92
47.06,7.94
47.53,7.96
48.01,7.99
48.49,8.00
48.97,8.01
49.46,8.01
49.96,8.01
50.46,8.02
50.96,8.02
51.47,8.03
51.99,8.03
52.51,8.04
53.03,8.04
53.56,8.04
54.10,8.04
54.64,8.04
55.18,8.04
55.74,8.05
56.29,8.05
56.86,8.05
57.42,8.05
58.00,8.05
58.58,8.05
59.16,8.05
59.76,8.05
60.35,8.05
60.96,8.05
61.57,8.05
62.18,8.04
62.80,8.04
63.43,8.03
64.07,8.02
64.71,8.01
65.35,8.00
66.01,7.99
66.67,7.98
67.33,7.98
68.01,7.97
68.69,7.95
69.37,7.94
70.07,7.93
70.77,7.92
71.48,7.90
72.19,7.88
72.91,7.86
73.64,7.85
74.38,7.83
75.12,7.80
75.87,7.78
76.63,7.76
77.40,7.74
78.17,7.71
78.95,7.69
79.74,7.66
80.54,7.64
81.35,7.61
82.16,7.59
82.98,7.56
83.81,7.53
84.65,7.51
85.50,7.47
86.35,7.44
87.22,7.41
88.09,7.38
88.97,7.34
89.86,7.31
90.76,7.27
91.66,7.23
92.58,7.20
93.51,7.16
94.44,7.12
95.39,7.08
96.34,7.04
97.30,6.99
98.28,6.95
99.26,6.90
100.25,6.86
101.25,6.81
102.27,6.76
103.29,6.71
104.32,6.66
105.37,6.61
106.42,6.56
107.48,6.51
108.56,6.45
109.64,6.40
110.74,6.34
111.85,6.29
112.97,6.23
114.10,6.18
115.24,6.12
116.39,6.06
117.55,6.00
118.73,5.94
119.92,5.88
121.12,5.82
122.33,5.76
123.55,5.69
124.79,5.63
126.03,5.56
127.29,5.49
128.57,5.43
129.85,5.36
131.15,5.29
132.46,5.22
133.79,5.15
135.12,5.08
136.48,5.01
137.84,4.94
139.22,4.86
140.61,4.79
142.02,4.72
143.44,4.64
144.87,4.57
146.32,4.49
147.78,4.42
149.26,4.34
150.75,4.27
152.26,4.19
153.78,4.11
155.32,4.03
156.88,3.96
158.44,3.88
160.03,3.80
161.63,3.72
163.24,3.64
164.88,3.56
166.53,3.49
168.19,3.41
169.87,3.33
171.57,3.25
173.29,3.17
175.02,3.09
176.77,3.01
178.54,2.93
180.32,2.85
182.13,2.77
183.95,2.69
185.79,2.61
187.65,2.54
189.52,2.46
191.42,2.38
193.33,2.31
195.27,2.23
197.22,2.16
199.19,2.08
201.18,2.01
203.19,1.94
205.23,1.87
207.28,1.80
209.35,1.72
211.44,1.65
213.56,1.58
215.69,1.52
217.85,1.45
220.03,1.38
222.23,1.31
224.45,1.25
226.70,1.19
228.96,1.12
231.25,1.06
233.57,1.00
235.90,0.94
238.26,0.88
240.64,0.83
243.05,0.77
245.48,0.71
247.93,0.66
250.41,0.60
252.92,0.55
255.45,0.50
258.00,0.45
260.58,0.41
263.19,0.36
265.82,0.32
268.48,0.27
271.16,0.23
273.87,0.19
276.61,0.15
279.38,0.11
282.17,0.08
284.99,0.04
287.84,0.00
290.72,-0.03
293.63,-0.07
296.57,-0.10
299.53,-0.14
302.53,-0.17
305.55,-0.20
308.61,-0.23
311.69,-0.26
314.81,-0.28
317.96,-0.31
321.14,-0.34
324.35,-0.37
327.59,-0.39
330.87,-0.41
334.18,-0.44
337.52,-0.46
340.90,-0.49
344.30,-0.51
347.75,-0.53
351.23,-0.55
354.74,-0.57
358.28,-0.59
361.87,-0.61
365.49,-0.63
369.14,-0.64
372.83,-0.66
376.56,-0.67
380.33,-0.69
384.13,-0.70
387.97,-0.71
391.85,-0.72
395.77,-0.73
399.73,-0.74
403.72,-0.75
407.76,-0.75
411.84,-0.76
415.96,-0.76
420.12,-0.77
424.32,-0.78
428.56,-0.79
432.85,-0.80
437.18,-0.81
441.55,-0.82
445.96,-0.83
450.42,-0.84
454.93,-0.85
459.48,-0.86
464.07,-0.88
468.71,-0.89
473.40,-0.90
478.13,-0.90
482.91,-0.91
487.74,-0.92
492.62,-0.93
497.55,-0.94
502.52,-0.95
507.55,-0.96
512.62,-0.97
517.75,-0.97
522.93,-0.98
528.16,-0.99
533.44,-0.99
538.77,-1.00
544.16,-1.01
549.60,-1.01
555.10,-1.02
560.65,-1.03
566.25,-1.03
571.92,-1.04
577.64,-1.04
583.41,-1.05
589.25,-1.05
595.14,-1.05
601.09,-1.06
607.10,-1.06
613.17,-1.06
619.30,-1.06
625.50,-1.06
631.75,-1.06
638.07,-1.06
644.45,-1.06
650.89,-1.06
657.40,-1.06
663.98,-1.06
670.62,-1.06
677.32,-1.05
684.10,-1.05
690.94,-1.04
697.85,-1.03
704.83,-1.03
711.87,-1.02
718.99,-1.01
726.18,-1.00
733.44,-0.98
740.78,-0.97
748.19,-0.95
755.67,-0.93
763.23,-0.91
770.86,-0.89
778.57,-0.86
786.35,-0.83
794.22,-0.80
802.16,-0.76
810.18,-0.73
818.28,-0.71
826.46,-0.69
834.73,-0.70
843.08,-0.72
851.51,-0.76
860.02,-0.80
868.62,-0.79
877.31,-0.77
886.08,-0.71
894.94,-0.64
903.89,-0.58
912.93,-0.53
922.06,-0.48
931.28,-0.44
940.59,-0.40
950.00,-0.36
959.50,-0.30
969.09,-0.24
978.78,-0.17
988.57,-0.09
998.46,-0.01
1008.44,0.07
1018.53,0.16
1028.71,0.24
1039.00,0.33
1049.39,0.42
1059.88,0.52
1070.48,0.61
1081.19,0.70
1092.00,0.80
1102.92,0.89
1113.95,0.99
1125.09,1.08
1136.34,1.18
1147.70,1.27
1159.18,1.37
1170.77,1.46
1182.48,1.55
1194.30,1.64
1206.25,1.73
1218.31,1.82
1230.49,1.91
1242.80,1.99
1255.22,2.08
1267.78,2.16
1280.45,2.24
1293.26,2.32
1306.19,2.39
1319.25,2.47
1332.45,2.54
1345.77,2.62
1359.23,2.69
1372.82,2.76
1386.55,2.83
1400.41,2.90
1414.42,2.97
1428.56,3.03
1442.85,3.10
1457.28,3.17
1471.85,3.23
1486.57,3.30
1501.43,3.36
1516.45,3.43
1531.61,3.49
1546.93,3.56
1562.40,3.62
1578.02,3.69
1593.80,3.75
1609.74,3.82
1625.84,3.89
1642.10,3.95
1658.52,4.02
1675.10,4.09
1691.85,4.16
1708.77,4.23
1725.86,4.30
1743.12,4.38
1760.55,4.45
1778.15,4.53
1795.94,4.60
1813.90,4.68
1832.03,4.76
1850.36,4.84
1868.86,4.92
1887.55,5.00
1906.42,5.09
1925.49,5.17
1944.74,5.26
1964.19,5.34
1983.83,5.43
2003.67,5.53
2023.71,5.62
2043.94,5.71
2064.38,5.80
2085.03,5.90
2105.88,6.00
2126.94,6.09
2148.20,6.19
2169.69,6.29
2191.38,6.39
2213.30,6.49
2235.43,6.59
2257.78,6.69
2280.36,6.79
2303.17,6.89
2326.20,6.99
2349.46,7.09
2372.95,7.19
2396.68,7.28
2420.65,7.38
2444.86,7.46
2469.31,7.55
2494.00,7.64
2518.94,7.71
2544.13,7.79
2569.57,7.86
2595.27,7.93
2621.22,7.99
2647.43,8.05
2673.90,8.10
2700.64,8.15
2727.65,8.19
2754.93,8.23
2782.48,8.25
2810.30,8.28
2838.40,8.30
2866.79,8.31
2895.46,8.31
2924.41,8.31
2953.65,8.31
2983.19,8.29
3013.02,8.27
3043.15,8.25
3073.58,8.22
3104.32,8.18
3135.36,8.14
3166.72,8.09
3198.38,8.04
3230.37,7.99
3262.67,7.93
3295.30,7.86
3328.25,7.80
3361.53,7.73
3395.15,7.65
3429.10,7.58
3463.39,7.50
3498.03,7.42
3533.01,7.34
3568.34,7.26
3604.02,7.18
3640.06,7.10
3676.46,7.01
3713.22,6.93
3750.36,6.85
3787.86,6.77
3825.74,6.69
3864.00,6.61
3902.64,6.54
3941.66,6.46
3981.08,6.39
4020.89,6.32
4061.10,6.25
4101.71,6.18
4142.73,6.12
4184.15,6.06
4226.00,6.00
4268.26,5.94
4310.94,5.88
4354.05,5.82
4397.59,5.76
4441.56,5.70
4485.98,5.64
4530.84,5.58
4576.15,5.53
4621.91,5.47
4668.13,5.41
4714.81,5.35
4761.96,5.29
4809.58,5.23
4857.67,5.17
4906.25,5.10
4955.31,5.03
5004.87,4.96
5054.91,4.89
5105.46,4.82
5156.52,4.74
5208.08,4.66
5260.16,4.57
5312.77,4.48
5365.89,4.39
5419.55,4.29
5473.75,4.19
5528.49,4.09
5583.77,3.98
5639.61,3.87
5696.00,3.76
5752.96,3.64
5810.49,3.52
5868.60,3.40
5927.28,3.28
5986.56,3.16
6046.42,3.04
6106.89,2.91
6167.96,2.79
6229.64,2.67
6291.93,2.56
6354.85,2.45
6418.40,2.34
6482.58,2.24
6547.41,2.15
6612.88,2.06
6679.01,1.98
6745.80,1.92
6813.26,1.86
6881.39,1.82
6950.21,1.79
7019.71,1.77
7089.91,1.77
7160.81,1.79
7232.41,1.83
7304.74,1.88
7377.79,1.95
7451.56,2.05
7526.08,2.16
7601.34,2.30
7677.35,2.46
7754.13,2.64
7831.67,2.86
7909.98,3.10
7989.08,3.38
8068.98,3.70
8149.67,4.06
8231.16,4.45
8313.47,4.89
8396.61,5.36
8480.57,5.87
8565.38,6.42
8651.03,6.97
8737.54,7.54
8824.92,8.08
8913.17,8.55
9002.30,8.99
9092.32,9.28
9183.25,9.43
9275.08,9.46
9367.83,9.32
9461.51,9.00
9556.12,8.55
9651.68,8.00
9748.20,7.36
9845.68,6.66
9944.14,5.94
10043.58,5.23
10144.02,4.53
10245.46,3.88
10347.91,3.26
10451.39,2.69
10555.91,2.19
10661.46,1.73
10768.08,1.32
10875.76,0.97
10984.52,0.67
11094.36,0.40
11205.31,0.18
11317.36,0.00
11430.53,-0.15
11544.84,-0.25
11660.29,-0.32
11776.89,-0.36
11894.66,-0.31
12013.60,-0.24
12133.74,-0.12
12255.08,0.04
12377.63,0.23
12501.41,0.42
12626.42,0.56
12752.68,0.64
12880.21,0.55
13009.01,0.38
13139.10,0.21
13270.49,-0.21
13403.20,-0.70
13537.23,-1.34
13672.60,-2.02
13809.33,-2.75
13947.42,-3.50
14086.90,-4.24
14227.77,-4.97
14370.04,-5.66
14513.74,-6.30
14658.88,-6.87
14805.47,-7.40
14953.52,-7.87
15103.06,-8.26
15254.09,-8.62
15406.63,-8.88
15560.70,-9.10
15716.30,-9.27
15873.47,-9.36
16032.20,-9.43
16192.52,-9.45
16354.45,-9.46
16517.99,-9.45
16683.17,-9.48
16850.01,-9.54
17018.51,-9.65
17188.69,-9.86
17360.58,-10.16
17534.18,-10.54
17709.53,-11.04
17886.62,-11.62
18065.49,-12.25
18246.14,-12.93
18428.60,-13.63
18612.89,-14.31
18799.02,-14.96
18987.01,-15.55
19176.88,-16.05
19368.65,-16.47
19562.33,-16.81
19757.96,-17.05
19955.54,-17.17
