frequency,raw
20.00,8.65
20.20,8.66
20.40,8.68
20.61,8.71
20.81,8.73
21.02,8.75
21.23,8.76
21.44,8.78
21.66,8.79
21.87,8.81
22.09,8.82
22.31,8.83
22.54,8.84
22.76,8.86
22.99,8.87
23.22,8.89
23.45,8.91
23.69,8.92
23.92,8.94
24.16,8.96
24.40,8.98
24.65,8.99
24.89,9.01
25.14,9.02
25.39,9.03
25.65,9.04
25.91,9.05
26.16,9.07
26.43,9.08
26.69,9.10
26.96,9.11
27.23,9.13
27.50,9.14
27.77,9.15
28.05,9.16
28.33,9.17
28.62,9.18
28.90,9.18
29.19,9.19
29.48,9.20
29.78,9.21
30.08,9.22
30.38,9.23
30.68,9.24
30.99,9.25
31.30,9.27
31.61,9.28
31.93,9.29
32.24,9.30
32.57,9.31
32.89,9.32
33.22,9.33
33.55,9.34
33.89,9.35
34.23,9.35
34.57,9.35
34.92,9.36
35.27,9.36
35.62,9.37
35.97,9.37
36.33,9.37
36.70,9.37
37.06,9.38
37.43,9.38
37.81,9.38
38.19,9.39
38.57,9.40
38.95,9.40
39.34,9.40
39.74,9.39
40.14,9.38
40.54,9.37
40.94,9.37
41.35,9.37
41.76,9.37
42.18,9.38
42.60,9.38
43.03,9.39
43.46,9.39
43.90,9.39
44.33,9.39
44.78,9.38
45.23,9.37
45.68,9.36
46.13,9.35
46.60,9.34
47.06,9.32
47.53,9.30
48.01,9.28
48.49,9.25
48.97,9.23
49.46,9.21
49.96,9.21
50.46,9.22
50.96,9.22
51.47,9.22
51.99,9.22
52.51,9.21
53.03,9.21
53.56,9.20
54.10,9.19
54.64,9.18
55.18,9.16
55.74,9.15
56.29,9.14
56.86,9.12
57.42,9.11
58.00,9.09
58.58,9.07
59.16,9.04
59.76,9.02
60.35,9.00
60.96,8.98
61.57,8.96
62.18,8.94
62.80,8.92
63.43,8.89
64.07,8.87
64.71,8.84
65.35,8.81
66.01,8.78
66.67,8.75
67.33,8.72
68.01,8.69
68.69,8.66
69.37,8.63
70.07,8.60
70.77,8.56
71.48,8.53
72.19,8.50
72.91,8.47
73.64,8.43
74.38,8.40
75.12,8.36
75.87,8.32
76.63,8.28
77.40,8.24
78.17,8.20
78.95,8.15
79.74,8.11
80.54,8.06
81.35,8.02
82.16,7.97
82.98,7.92
83.81,7.87
84.65,7.82
85.50,7.77
86.35,7.73
87.22,7.68
88.09,7.63
88.97,7.58
89.86,7.53
90.76,7.47
91.66,7.42
92.58,7.36
93.51,7.30
94.44,7.25
95.39,7.19
96.34,7.14
97.30,7.08
98.28,7.02
99.26,6.96
100.25,6.89
101.25,6.82
102.27,6.75
103.29,6.68
104.32,6.61
105.37,6.54
106.42,6.47
107.48,6.40
108.56,6.33
109.64,6.26
110.74,6.19
111.85,6.11
112.97,6.04
114.10,5.96
115.24,5.89
116.39,5.81
117.55,5.74
118.73,5.66
119.92,5.59
121.12,5.51
122.33,5.43
123.55,5.34
124.79,5.26
126.03,5.18
127.29,5.09
128.57,5.01
129.85,4.92
131.15,4.84
132.46,4.75
133.79,4.67
135.12,4.58
136.48,4.49
137.84,4.40
139.22,4.32
140.61,4.23
142.02,4.14
143.44,4.05
144.87,3.96
146.32,3.87
147.78,3.78
149.26,3.69
150.75,3.60
152.26,3.51
153.78,3.42
155.32,3.33
156.88,3.24
158.44,3.15
160.03,3.06
161.63,2.97
163.24,2.88
164.88,2.79
166.53,2.70
168.19,2.61
169.87,2.52
171.57,2.43
173.29,2.34
175.02,2.25
176.77,2.17
178.54,2.08
180.32,2.00
182.13,1.91
183.95,1.83
185.79,1.74
187.65,1.66
189.52,1.58
191.42,1.49
193.33,1.41
195.27,1.33
197.22,1.26
199.19,1.18
201.18,1.11
203.19,1.04
205.23,0.98
207.28,0.91
209.35,0.84
211.44,0.77
213.56,0.70
215.69,0.63
217.85,0.57
220.03,0.51
222.23,0.45
224.45,0.39
226.70,0.34
228.96,0.28
231.25,0.23
233.57,0.18
235.90,0.13
238.26,0.08
240.64,0.04
243.05,-0.00
245.48,-0.04
247.93,-0.08
250.41,-0.12
252.92,-0.16
255.45,-0.20
258.00,-0.24
260.58,-0.29
263.19,-0.33
265.82,-0.38
268.48,-0.42
271.16,-0.45
273.87,-0.48
276.61,-0.51
279.38,-0.53
282.17,-0.55
284.99,-0.57
287.84,-0.58
290.72,-0.60
293.63,-0.61
296.57,-0.61
299.53,-0.62
302.53,-0.62
305.55,-0.62
308.61,-0.62
311.69,-0.63
314.81,-0.63
317.96,-0.64
321.14,-0.65
324.35,-0.66
327.59,-0.67
330.87,-0.68
334.18,-0.69
337.52,-0.70
340.90,-0.72
344.30,-0.73
347.75,-0.74
351.23,-0.75
354.74,-0.75
358.28,-0.76
361.87,-0.77
365.49,-0.78
369.14,-0.79
372.83,-0.79
376.56,-0.80
380.33,-0.81
384.13,-0.82
387.97,-0.82
391.85,-0.83
395.77,-0.84
399.73,-0.84
403.72,-0.85
407.76,-0.85
411.84,-0.86
415.96,-0.87
420.12,-0.87
424.32,-0.88
428.56,-0.88
432.85,-0.89
437.18,-0.89
441.55,-0.90
445.96,-0.90
450.42,-0.91
454.93,-0.92
459.48,-0.92
464.07,-0.93
468.71,-0.93
473.40,-0.94
478.13,-0.94
482.91,-0.95
487.74,-0.95
492.62,-0.96
497.55,-0.96
502.52,-0.97
507.55,-0.97
512.62,-0.98
517.75,-0.98
522.93,-0.99
528.16,-0.99
533.44,-0.99
538.77,-1.00
544.16,-1.00
549.60,-1.01
555.10,-1.01
560.65,-1.01
566.25,-1.02
571.92,-1.02
577.64,-1.03
583.41,-1.03
589.25,-1.03
595.14,-1.03
601.09,-1.03
607.10,-1.04
613.17,-1.04
619.30,-1.04
625.50,-1.04
631.75,-1.04
638.07,-1.04
644.45,-1.03
650.89,-1.03
657.40,-1.03
663.98,-1.03
670.62,-1.02
677.32,-1.02
684.10,-1.02
690.94,-1.01
697.85,-1.00
704.83,-1.00
711.87,-0.99
718.99,-0.98
726.18,-0.96
733.44,-0.95
740.78,-0.93
748.19,-0.92
755.67,-0.90
763.23,-0.87
770.86,-0.85
778.57,-0.82
786.35,-0.79
794.22,-0.76
802.16,-0.72
810.18,-0.68
818.28,-0.65
826.46,-0.63
834.73,-0.63
843.08,-0.65
851.51,-0.69
860.02,-0.73
868.62,-0.75
877.31,-0.74
886.08,-0.69
894.94,-0.63
903.89,-0.57
912.93,-0.51
922.06,-0.47
931.28,-0.43
940.59,-0.40
950.00,-0.37
959.50,-0.32
969.09,-0.25
978.78,-0.18
988.57,-0.10
998.46,-0.01
1008.44,0.08
1018.53,0.17
1028.71,0.26
1039.00,0.35
1049.39,0.44
1059.88,0.54
1070.48,0.63
1081.19,0.72
1092.00,0.82
1102.92,0.91
1113.95,1.00
1125.09,1.10
1136.34,1.19
1147.70,1.28
1159.18,1.38
1170.77,1.47
1182.48,1.56
1194.30,1.65
1206.25,1.74
1218.31,1.82
1230.49,1.91
1242.80,1.99
1255.22,2.08
1267.78,2.16
1280.45,2.24
1293.26,2.32
1306.19,2.39
1319.25,2.47
1332.45,2.54
1345.77,2.62
1359.23,2.69
1372.82,2.76
1386.55,2.83
1400.41,2.90
1414.42,2.97
1428.56,3.03
1442.85,3.10
1457.28,3.17
1471.85,3.23
1486.57,3.30
1501.43,3.36
1516.45,3.43
1531.61,3.49
1546.93,3.56
1562.40,3.62
1578.02,3.69
1593.80,3.75
1609.74,3.82
1625.84,3.89
1642.10,3.95
1658.52,4.02
1675.10,4.09
1691.85,4.16
1708.77,4.23
1725.86,4.30
1743.12,4.38
1760.55,4.45
1778.15,4.53
1795.94,4.60
1813.90,4.68
1832.03,4.76
1850.36,4.84
1868.86,4.92
1887.55,5.00
1906.42,5.09
1925.49,5.17
1944.74,5.26
1964.19,5.35
1983.83,5.44
2003.67,5.53
2023.71,5.62
2043.94,5.72
2064.38,5.81
2085.03,5.91
2105.88,6.01
2126.94,6.10
2148.20,6.20
2169.69,6.30
2191.38,6.40
2213.30,6.50
2235.43,6.61
2257.78,6.71
2280.36,6.81
2303.17,6.91
2326.20,7.01
2349.46,7.11
2372.95,7.20
2396.68,7.30
2420.65,7.39
2444.86,7.48
2469.31,7.57
2494.00,7.65
2518.94,7.73
2544.13,7.81
2569.57,7.88
2595.27,7.95
2621.22,8.01
2647.43,8.07
2673.90,8.12
2700.64,8.17
2727.65,8.21
2754.93,8.25
2782.48,8.28
2810.30,8.30
2838.40,8.32
2866.79,8.33
2895.46,8.34
2924.41,8.33
2953.65,8.33
2983.19,8.32
3013.02,8.30
3043.15,8.28
3073.58,8.25
3104.32,8.21
3135.36,8.17
3166.72,8.12
3198.38,8.07
3230.37,8.02
3262.67,7.96
3295.30,7.90
3328.25,7.83
3361.53,7.76
3395.15,7.69
3429.10,7.61
3463.39,7.54
3498.03,7.46
3533.01,7.38
3568.34,7.31
3604.02,7.23
3640.06,7.16
3676.46,7.10
3713.22,7.03
3750.36,6.96
3787.86,6.90
3825.74,6.83
3864.00,6.77
3902.64,6.70
3941.66,6.63
3981.08,6.56
4020.89,6.49
4061.10,6.43
4101.71,6.36
4142.73,6.30
4184.15,6.24
4226.00,6.18
4268.26,6.12
4310.94,6.06
4354.05,6.01
4397.59,5.95
4441.56,5.89
4485.98,5.84
4530.84,5.79
4576.15,5.73
4621.91,5.68
4668.13,5.62
4714.81,5.56
4761.96,5.51
4809.58,5.45
4857.67,5.38
4906.25,5.32
4955.31,5.25
5004.87,5.17
5054.91,5.09
5105.46,5.01
5156.52,4.92
5208.08,4.82
5260.16,4.73
5312.77,4.63
5365.89,4.52
5419.55,4.42
5473.75,4.31
5528.49,4.21
5583.77,4.10
5639.61,3.98
5696.00,3.87
5752.96,3.76
5810.49,3.64
5868.60,3.53
5927.28,3.41
5986.56,3.29
6046.42,3.18
6106.89,3.07
6167.96,2.96
6229.64,2.85
6291.93,2.75
6354.85,2.66
6418.40,2.57
6482.58,2.49
6547.41,2.41
6612.88,2.35
6679.01,2.29
6745.80,2.24
6813.26,2.20
6881.39,2.18
6950.21,2.17
7019.71,2.17
7089.91,2.19
7160.81,2.24
7232.41,2.29
7304.74,2.37
7377.79,2.47
7451.56,2.59
7526.08,2.74
7601.34,2.90
7677.35,3.10
7754.13,3.32
7831.67,3.58
7909.98,3.87
7989.08,4.18
8068.98,4.55
8149.67,4.94
8231.16,5.37
8313.47,5.84
8396.61,6.33
8480.57,6.84
8565.38,7.36
8651.03,7.86
8737.54,8.34
8824.92,8.75
8913.17,9.04
9002.30,9.29
9092.32,9.35
9183.25,9.26
9275.08,9.06
9367.83,8.70
9461.51,8.21
9556.12,7.63
9651.68,6.98
9748.20,6.29
9845.68,5.58
9944.14,4.89
10043.58,4.22
10144.02,3.58
10245.46,3.00
10347.91,2.46
10451.39,1.97
10555.91,1.55
10661.46,1.17
10768.08,0.83
10875.76,0.55
10984.52,0.32
11094.36,0.11
11205.31,-0.06
11317.36,-0.18
11430.53,-0.29
11544.84,-0.35
11660.29,-0.38
11776.89,-0.39
11894.66,-0.31
12013.60,-0.22
12133.74,-0.08
12255.08,0.10
12377.63,0.31
12501.41,0.50
12626.42,0.65
12752.68,0.72
12880.21,0.62
13009.01,0.44
13139.10,0.25
13270.49,-0.19
13403.20,-0.70
13537.23,-1.35
13672.60,-2.04
13809.33,-2.76
13947.42,-3.50
14086.90,-4.22
14227.77,-4.92
14370.04,-5.58
14513.74,-6.19
14658.88,-6.71
14805.47,-7.19
14953.52,-7.60
15103.06,-7.94
15254.09,-8.24
15406.63,-8.44
15560.70,-8.61
15716.30,-8.71
15873.47,-8.77
16032.20,-8.79
16192.52,-8.79
16354.45,-8.79
16517.99,-8.80
16683.17,-8.86
16850.01,-8.99
17018.51,-9.18
17188.69,-9.49
17360.58,-9.89
17534.18,-10.37
17709.53,-10.95
17886.62,-11.58
18065.49,-12.25
18246.14,-12.93
18428.60,-13.59
18612.89,-14.21
18799.02,-14.78
18987.01,-15.28
19176.88,-15.67
19368.65,-15.99
19562.33,-16.23
19757.96,-16.40
19955.54,-16.49
