frequency,raw
20.00,7.07
20.20,7.13
20.40,7.18
20.61,7.24
20.81,7.29
21.02,7.33
21.23,7.37
21.44,7.40
21.66,7.42
21.87,7.45
22.09,7.48
22.31,7.50
22.54,7.53
22.76,7.56
22.99,7.59
23.22,7.61
23.45,7.64
23.69,7.66
23.92,7.68
24.16,7.70
24.40,7.71
24.65,7.72
24.89,7.72
25.14,7.73
25.39,7.74
25.65,7.75
25.91,7.77
26.16,7.78
26.43,7.80
26.69,7.82
26.96,7.84
27.23,7.85
27.50,7.85
27.77,7.85
28.05,7.85
28.33,7.84
28.62,7.83
28.90,7.83
29.19,7.82
29.48,7.81
29.78,7.80
30.08,7.79
30.38,7.77
30.68,7.76
30.99,7.75
31.30,7.75
31.61,7.75
31.93,7.75
32.24,7.76
32.57,7.78
32.89,7.79
33.22,7.80
33.55,7.82
33.89,7.83
34.23,7.84
34.57,7.86
34.92,7.87
35.27,7.89
35.62,7.90
35.97,7.92
36.33,7.93
36.70,7.94
37.06,7.94
37.43,7.95
37.81,7.95
38.19,7.96
38.57,7.96
38.95,7.95
39.34,7.95
39.74,7.94
40.14,7.93
40.54,7.93
40.94,7.92
41.35,7.92
41.76,7.92
42.18,7.91
42.60,7.90
43.03,7.89
43.46,7.89
43.90,7.88
44.33,7.88
44.78,7.87
45.23,7.87
45.68,7.86
46.13,7.85
46.60,7.84
47.06,7.83
47.53,7.82
48.01,7.80
48.49,7.78
48.97,7.77
49.46,7.77
49.96,7.77
50.46,7.76
50.96,7.75
51.47,7.73
51.99,7.71
52.51,7.69
53.03,7.68
53.56,7.67
54.10,7.66
54.64,7.64
55.18,7.63
55.74,7.62
56.29,7.61
56.86,7.59
57.42,7.57
58.00,7.55
58.58,7.52
59.16,7.50
59.76,7.47
60.35,7.45
60.96,7.42
61.57,7.40
62.18,7.38
62.80,7.35
63.43,7.33
64.07,7.30
64.71,7.27
65.35,7.25
66.01,7.22
66.67,7.19
67.33,7.15
68.01,7.12
68.69,7.08
69.37,7.05
70.07,7.02
70.77,6.99
71.48,6.96
72.19,6.92
72.91,6.89
73.64,6.85
74.38,6.81
75.12,6.77
75.87,6.73
76.63,6.68
77.40,6.63
78.17,6.58
78.95,6.53
79.74,6.48
80.54,6.43
81.35,6.38
82.16,6.33
82.98,6.28
83.81,6.24
84.65,6.19
85.50,6.14
86.35,6.09
87.22,6.04
88.09,5.99
88.97,5.93
89.86,5.88
90.76,5.82
91.66,5.75
92.58,5.69
93.51,5.63
94.44,5.56
95.39,5.50
96.34,5.43
97.30,5.36
98.28,5.30
99.26,5.23
100.25,5.16
101.25,5.10
102.27,5.03
103.29,4.96
104.32,4.89
105.37,4.82
106.42,4.75
107.48,4.67
108.56,4.59
109.64,4.52
110.74,4.44
111.85,4.36
112.97,4.27
114.10,4.19
115.24,4.10
116.39,4.02
117.55,3.93
118.73,3.85
119.92,3.77
121.12,3.69
122.33,3.61
123.55,3.53
124.79,3.44
126.03,3.35
127.29,3.27
128.57,3.18
129.85,3.09
131.15,2.99
132.46,2.90
133.79,2.81
135.12,2.71
136.48,2.62
137.84,2.53
139.22,2.43
140.61,2.34
142.02,2.24
143.44,2.15
144.87,2.05
146.32,1.96
147.78,1.87
149.26,1.77
150.75,1.68
152.26,1.58
153.78,1.48
155.32,1.38
156.88,1.29
158.44,1.20
160.03,1.11
161.63,1.02
163.24,0.93
164.88,0.84
166.53,0.75
168.19,0.67
169.87,0.58
171.57,0.50
173.29,0.41
175.02,0.32
176.77,0.22
178.54,0.14
180.32,0.05
182.13,-0.03
183.95,-0.11
185.79,-0.19
187.65,-0.27
189.52,-0.35
191.42,-0.43
193.33,-0.51
195.27,-0.58
197.22,-0.66
199.19,-0.73
201.18,-0.79
203.19,-0.86
205.23,-0.92
207.28,-0.98
209.35,-1.04
211.44,-1.09
213.56,-1.12
215.69,-1.14
217.85,-1.16
220.03,-1.17
222.23,-1.18
224.45,-1.19
226.70,-1.20
228.96,-1.21
231.25,-1.22
233.57,-1.23
235.90,-1.24
238.26,-1.26
240.64,-1.28
243.05,-1.31
245.48,-1.35
247.93,-1.40
250.41,-1.43
252.92,-1.45
255.45,-1.45
258.00,-1.44
260.58,-1.42
263.19,-1.41
265.82,-1.39
268.48,-1.38
271.16,-1.38
273.87,-1.38
276.61,-1.38
279.38,-1.38
282.17,-1.38
284.99,-1.38
287.84,-1.38
290.72,-1.38
293.63,-1.38
296.57,-1.37
299.53,-1.37
302.53,-1.36
305.55,-1.36
308.61,-1.35
311.69,-1.35
314.81,-1.34
317.96,-1.33
321.14,-1.32
324.35,-1.31
327.59,-1.31
330.87,-1.30
334.18,-1.29
337.52,-1.28
340.90,-1.27
344.30,-1.27
347.75,-1.26
351.23,-1.25
354.74,-1.24
358.28,-1.23
361.87,-1.23
365.49,-1.22
369.14,-1.21
372.83,-1.20
376.56,-1.20
380.33,-1.19
384.13,-1.18
387.97,-1.18
391.85,-1.17
395.77,-1.16
399.73,-1.16
403.72,-1.15
407.76,-1.15
411.84,-1.14
415.96,-1.14
420.12,-1.13
424.32,-1.13
428.56,-1.12
432.85,-1.12
437.18,-1.12
441.55,-1.11
445.96,-1.11
450.42,-1.11
454.93,-1.10
459.48,-1.10
464.07,-1.10
468.71,-1.09
473.40,-1.09
478.13,-1.09
482.91,-1.09
487.74,-1.09
492.62,-1.09
497.55,-1.09
502.52,-1.08
507.55,-1.08
512.62,-1.08
517.75,-1.08
522.93,-1.08
528.16,-1.08
533.44,-1.08
538.77,-1.08
544.16,-1.08
549.60,-1.08
555.10,-1.08
560.65,-1.08
566.25,-1.08
571.92,-1.08
577.64,-1.08
583.41,-1.08
589.25,-1.08
595.14,-1.08
601.09,-1.08
607.10,-1.07
613.17,-1.07
619.30,-1.07
625.50,-1.07
631.75,-1.07
638.07,-1.07
644.45,-1.06
650.89,-1.06
657.40,-1.05
663.98,-1.05
670.62,-1.04
677.32,-1.03
684.10,-1.03
690.94,-1.02
697.85,-1.01
704.83,-1.00
711.87,-0.99
718.99,-0.97
726.18,-0.96
733.44,-0.94
740.78,-0.93
748.19,-0.91
755.67,-0.89
763.23,-0.87
770.86,-0.84
778.57,-0.82
786.35,-0.79
794.22,-0.75
802.16,-0.72
810.18,-0.68
818.28,-0.65
826.46,-0.63
834.73,-0.63
843.08,-0.66
851.51,-0.70
860.02,-0.74
868.62,-0.75
877.31,-0.74
886.08,-0.70
894.94,-0.63
903.89,-0.56
912.93,-0.51
922.06,-0.47
931.28,-0.43
940.59,-0.40
950.00,-0.37
959.50,-0.32
969.09,-0.25
978.78,-0.18
988.57,-0.10
998.46,-0.01
1008.44,0.07
1018.53,0.16
1028.71,0.25
1039.00,0.34
1049.39,0.43
1059.88,0.52
1070.48,0.61
1081.19,0.71
1092.00,0.80
1102.92,0.89
1113.95,0.98
1125.09,1.07
1136.34,1.16
1147.70,1.25
1159.18,1.34
1170.77,1.43
1182.48,1.51
1194.30,1.60
1206.25,1.68
1218.31,1.77
1230.49,1.85
1242.80,1.93
1255.22,2.01
1267.78,2.09
1280.45,2.17
1293.26,2.24
1306.19,2.32
1319.25,2.39
1332.45,2.46
1345.77,2.54
1359.23,2.61
1372.82,2.67
1386.55,2.74
1400.41,2.81
1414.42,2.88
1428.56,2.94
1442.85,3.01
1457.28,3.07
1471.85,3.14
1486.57,3.20
1501.43,3.27
1516.45,3.33
1531.61,3.40
1546.93,3.46
1562.40,3.52
1578.02,3.59
1593.80,3.66
1609.74,3.72
1625.84,3.79
1642.10,3.86
1658.52,3.93
1675.10,3.99
1691.85,4.06
1708.77,4.13
1725.86,4.21
1743.12,4.28
1760.55,4.35
1778.15,4.43
1795.94,4.50
1813.90,4.58
1832.03,4.66
1850.36,4.74
1868.86,4.82
1887.55,4.90
1906.42,4.99
1925.49,5.07
1944.74,5.16
1964.19,5.25
1983.83,5.34
2003.67,5.43
2023.71,5.52
2043.94,5.61
2064.38,5.70
2085.03,5.80
2105.88,5.90
2126.94,5.99
2148.20,6.09
2169.69,6.19
2191.38,6.29
2213.30,6.39
2235.43,6.49
2257.78,6.59
2280.36,6.69
2303.17,6.79
2326.20,6.89
2349.46,6.99
2372.95,7.08
2396.68,7.17
2420.65,7.27
2444.86,7.35
2469.31,7.44
2494.00,7.52
2518.94,7.60
2544.13,7.68
2569.57,7.75
2595.27,7.81
2621.22,7.87
2647.43,7.93
2673.90,7.98
2700.64,8.03
2727.65,8.07
2754.93,8.11
2782.48,8.14
2810.30,8.16
2838.40,8.18
2866.79,8.19
2895.46,8.20
2924.41,8.20
2953.65,8.20
2983.19,8.19
3013.02,8.17
3043.15,8.15
3073.58,8.12
3104.32,8.09
3135.36,8.05
3166.72,8.01
3198.38,7.96
3230.37,7.90
3262.67,7.85
3295.30,7.79
3328.25,7.72
3361.53,7.66
3395.15,7.60
3429.10,7.53
3463.39,7.47
3498.03,7.41
3533.01,7.36
3568.34,7.31
3604.02,7.26
3640.06,7.21
3676.46,7.15
3713.22,7.10
3750.36,7.04
3787.86,6.97
3825.74,6.91
3864.00,6.84
3902.64,6.78
3941.66,6.72
3981.08,6.66
4020.89,6.59
4061.10,6.54
4101.71,6.48
4142.73,6.43
4184.15,6.37
4226.00,6.33
4268.26,6.28
4310.94,6.23
4354.05,6.19
4397.59,6.14
4441.56,6.10
4485.98,6.05
4530.84,6.00
4576.15,5.94
4621.91,5.88
4668.13,5.82
4714.81,5.75
4761.96,5.69
4809.58,5.62
4857.67,5.56
4906.25,5.50
4955.31,5.44
5004.87,5.38
5054.91,5.33
5105.46,5.28
5156.52,5.22
5208.08,5.17
5260.16,5.11
5312.77,5.05
5365.89,4.99
5419.55,4.92
5473.75,4.85
5528.49,4.78
5583.77,4.70
5639.61,4.62
5696.00,4.54
5752.96,4.45
5810.49,4.37
5868.60,4.29
5927.28,4.20
5986.56,4.12
6046.42,4.04
6106.89,3.97
6167.96,3.89
6229.64,3.82
6291.93,3.75
6354.85,3.69
6418.40,3.64
6482.58,3.59
6547.41,3.55
6612.88,3.52
6679.01,3.50
6745.80,3.49
6813.26,3.49
6881.39,3.51
6950.21,3.55
7019.71,3.60
7089.91,3.68
7160.81,3.78
7232.41,3.90
7304.74,4.04
7377.79,4.22
7451.56,4.42
7526.08,4.64
7601.34,4.90
7677.35,5.19
7754.13,5.49
7831.67,5.84
7909.98,6.20
7989.08,6.58
8068.98,6.98
8149.67,7.38
8231.16,7.78
8313.47,8.14
8396.61,8.48
8480.57,8.73
8565.38,8.89
8651.03,8.95
8737.54,8.90
8824.92,8.71
8913.17,8.37
9002.30,7.99
9092.32,7.46
9183.25,6.87
9275.08,6.25
9367.83,5.59
9461.51,4.93
9556.12,4.28
9651.68,3.65
9748.20,3.05
9845.68,2.49
9944.14,1.97
10043.58,1.50
10144.02,1.06
10245.46,0.69
10347.91,0.35
10451.39,0.05
10555.91,-0.19
10661.46,-0.40
10768.08,-0.58
10875.76,-0.71
10984.52,-0.81
11094.36,-0.88
11205.31,-0.93
11317.36,-0.94
11430.53,-0.95
11544.84,-0.92
11660.29,-0.87
11776.89,-0.80
11894.66,-0.65
12013.60,-0.49
12133.74,-0.29
12255.08,-0.05
12377.63,0.21
12501.41,0.45
12626.42,0.64
12752.68,0.73
12880.21,0.65
13009.01,0.47
13139.10,0.29
13270.49,-0.13
13403.20,-0.62
13537.23,-1.23
13672.60,-1.87
13809.33,-2.53
13947.42,-3.18
14086.90,-3.80
14227.77,-4.38
14370.04,-4.92
14513.74,-5.39
14658.88,-5.77
14805.47,-6.10
14953.52,-6.35
15103.06,-6.53
15254.09,-6.67
15406.63,-6.73
15560.70,-6.76
15716.30,-6.76
15873.47,-6.75
16032.20,-6.76
16192.52,-6.81
16354.45,-6.93
16517.99,-7.12
16683.17,-7.43
16850.01,-7.84
17018.51,-8.33
17188.69,-8.93
17360.58,-9.59
17534.18,-10.28
17709.53,-10.99
17886.62,-11.67
18065.49,-12.32
18246.14,-12.92
18428.60,-13.41
18612.89,-13.82
18799.02,-14.17
18987.01,-14.44
19176.88,-14.66
19368.65,-14.88
19562.33,-15.09
19757.96,-15.29
19955.54,-15.44
