frequency,raw,smoothed,error,error_smoothed,equalization,parametric_eq,fixed_band_eq,equalized_raw,equalized_smoothed,target
20.00,10.61,10.61,4.48,4.48,-4.48,-4.49,-1.72,6.12,6.12,6.13
20.20,10.60,10.60,4.47,4.47,-4.47,-4.48,-1.77,6.12,6.12,6.13
20.40,10.59,10.59,4.46,4.46,-4.46,-4.46,-1.82,6.12,6.12,6.12
20.61,10.58,10.58,4.45,4.45,-4.45,-4.45,-1.87,6.12,6.13,6.12
20.81,10.57,10.57,4.44,4.44,-4.44,-4.44,-1.93,6.13,6.13,6.12
21.02,10.56,10.55,4.43,4.43,-4.43,-4.43,-1.99,6.13,6.13,6.12
21.23,10.54,10.54,4.42,4.42,-4.41,-4.42,-2.05,6.12,6.12,6.12
21.44,10.52,10.52,4.40,4.40,-4.40,-4.41,-2.11,6.12,6.12,6.12
21.66,10.51,10.50,4.39,4.38,-4.38,-4.39,-2.17,6.12,6.12,6.12
21.87,10.49,10.49,4.37,4.37,-4.37,-4.38,-2.23,6.12,6.12,6.12
22.09,10.47,10.47,4.35,4.35,-4.35,-4.37,-2.30,6.12,6.12,6.12
22.31,10.45,10.45,4.33,4.33,-4.33,-4.36,-2.37,6.11,6.11,6.12
22.54,10.43,10.43,4.31,4.31,-4.32,-4.34,-2.44,6.11,6.12,6.12
22.76,10.42,10.41,4.30,4.30,-4.30,-4.33,-2.51,6.12,6.12,6.12
22.99,10.40,10.40,4.28,4.28,-4.28,-4.32,-2.58,6.12,6.12,6.11
23.22,10.38,10.38,4.26,4.26,-4.26,-4.30,-2.66,6.11,6.12,6.11
23.45,10.36,10.36,4.24,4.24,-4.24,-4.29,-2.73,6.11,6.11,6.11
23.69,10.34,10.34,4.23,4.23,-4.23,-4.27,-2.81,6.11,6.11,6.11
23.92,10.32,10.32,4.21,4.21,-4.21,-4.26,-2.89,6.11,6.11,6.11
24.16,10.30,10.30,4.19,4.19,-4.19,-4.25,-2.97,6.11,6.11,6.11
24.40,10.28,10.28,4.17,4.17,-4.17,-4.23,-3.05,6.11,6.11,6.11
24.65,10.26,10.26,4.15,4.15,-4.15,-4.21,-3.13,6.11,6.11,6.11
24.89,10.24,10.24,4.13,4.13,-4.13,-4.20,-3.22,6.11,6.11,6.11
25.14,10.22,10.22,4.11,4.11,-4.11,-4.18,-3.30,6.10,6.10,6.10
25.39,10.20,10.20,4.09,4.09,-4.10,-4.17,-3.39,6.10,6.10,6.10
25.65,10.18,10.18,4.08,4.08,-4.08,-4.15,-3.47,6.10,6.10,6.10
25.91,10.17,10.16,4.07,4.06,-4.06,-4.13,-3.56,6.10,6.10,6.10
26.16,10.15,10.15,4.05,4.05,-4.05,-4.12,-3.64,6.10,6.10,6.10
26.43,10.14,10.14,4.04,4.04,-4.04,-4.10,-3.73,6.10,6.10,6.10
26.69,10.12,10.12,4.02,4.02,-4.02,-4.08,-3.81,6.09,6.10,6.09
26.96,10.11,10.11,4.01,4.01,-4.01,-4.07,-3.89,6.10,6.09,6.09
27.23,10.09,10.09,4.00,4.00,-4.00,-4.05,-3.97,6.09,6.09,6.09
27.50,10.08,10.08,3.99,3.99,-3.99,-4.03,-4.05,6.09,6.09,6.09
27.77,10.06,10.06,3.97,3.97,-3.97,-4.01,-4.12,6.09,6.09,6.09
28.05,10.05,10.04,3.96,3.96,-3.96,-3.99,-4.19,6.09,6.09,6.09
28.33,10.03,10.03,3.94,3.94,-3.94,-3.97,-4.26,6.08,6.08,6.08
28.62,10.01,10.01,3.93,3.93,-3.93,-3.95,-4.32,6.08,6.08,6.08
28.90,10.00,9.99,3.92,3.91,-3.92,-3.93,-4.38,6.08,6.08,6.08
29.19,9.98,9.98,3.90,3.90,-3.90,-3.91,-4.43,6.08,6.08,6.08
29.48,9.96,9.96,3.88,3.88,-3.88,-3.89,-4.48,6.07,6.08,6.07
29.78,9.94,9.94,3.87,3.87,-3.87,-3.87,-4.52,6.07,6.07,6.07
30.08,9.92,9.92,3.85,3.85,-3.85,-3.85,-4.55,6.07,6.07,6.07
30.38,9.90,9.89,3.83,3.83,-3.83,-3.83,-4.58,6.07,6.07,6.07
30.68,9.87,9.87,3.80,3.81,-3.81,-3.81,-4.60,6.06,6.06,6.06
30.99,9.85,9.85,3.79,3.78,-3.78,-3.79,-4.62,6.06,6.06,6.06
31.30,9.82,9.82,3.76,3.76,-3.76,-3.76,-4.62,6.06,6.06,6.06
31.61,9.80,9.79,3.74,3.74,-3.74,-3.74,-4.62,6.06,6.06,6.05
31.93,9.77,9.77,3.72,3.71,-3.72,-3.72,-4.61,6.05,6.05,6.05
32.24,9.74,9.74,3.69,3.69,-3.69,-3.70,-4.60,6.05,6.05,6.05
32.57,9.71,9.71,3.66,3.67,-3.67,-3.67,-4.58,6.04,6.04,6.04
32.89,9.69,9.68,3.65,3.64,-3.64,-3.65,-4.55,6.04,6.04,6.04
33.22,9.66,9.66,3.62,3.62,-3.62,-3.63,-4.51,6.04,6.04,6.04
33.55,9.63,9.63,3.59,3.59,-3.59,-3.60,-4.47,6.03,6.03,6.03
33.89,9.60,9.60,3.57,3.57,-3.57,-3.58,-4.43,6.03,6.03,6.03
34.23,9.57,9.57,3.54,3.55,-3.55,-3.55,-4.38,6.02,6.03,6.02
34.57,9.55,9.54,3.53,3.52,-3.52,-3.53,-4.32,6.03,6.02,6.02
34.92,9.52,9.51,3.50,3.50,-3.50,-3.50,-4.26,6.02,6.02,6.02
35.27,9.48,9.48,3.47,3.47,-3.47,-3.47,-4.20,6.01,6.01,6.01
35.62,9.45,9.45,3.44,3.44,-3.44,-3.45,-4.13,6.00,6.00,6.01
35.97,9.42,9.42,3.42,3.41,-3.42,-3.42,-4.06,6.00,6.00,6.00
36.33,9.39,9.39,3.39,3.39,-3.39,-3.40,-3.99,6.00,6.00,6.00
36.70,9.36,9.36,3.37,3.37,-3.36,-3.37,-3.92,5.99,5.99,5.99
37.06,9.33,9.32,3.34,3.34,-3.34,-3.34,-3.85,5.99,5.98,5.98
37.43,9.29,9.29,3.31,3.31,-3.31,-3.31,-3.77,5.97,5.98,5.98
37.81,9.26,9.26,3.28,3.28,-3.29,-3.28,-3.70,5.97,5.97,5.97
38.19,9.23,9.23,3.26,3.26,-3.26,-3.26,-3.62,5.96,5.96,5.97
38.57,9.20,9.20,3.24,3.24,-3.24,-3.23,-3.55,5.96,5.96,5.96
38.95,9.17,9.16,3.21,3.21,-3.21,-3.20,-3.47,5.96,5.95,5.95
39.34,9.13,9.13,3.18,3.18,-3.18,-3.17,-3.40,5.94,5.95,5.95
39.74,9.10,9.09,3.16,3.16,-3.15,-3.14,-3.33,5.94,5.94,5.94
40.14,9.06,9.06,3.13,3.13,-3.13,-3.11,-3.25,5.93,5.93,5.93
40.54,9.02,9.02,3.09,3.09,-3.09,-3.08,-3.18,5.92,5.92,5.92
40.94,8.98,8.98,3.06,3.06,-3.06,-3.05,-3.11,5.91,5.91,5.92
41.35,8.94,8.94,3.03,3.03,-3.03,-3.02,-3.05,5.91,5.91,5.91
41.76,8.90,8.90,3.00,3.00,-3.00,-2.99,-2.98,5.90,5.90,5.90
42.18,8.86,8.85,2.97,2.96,-2.96,-2.96,-2.92,5.89,5.89,5.89
42.60,8.81,8.81,2.93,2.93,-2.93,-2.93,-2.86,5.88,5.88,5.88
43.03,8.77,8.77,2.90,2.90,-2.90,-2.90,-2.80,5.87,5.87,5.87
43.46,8.73,8.72,2.87,2.86,-2.87,-2.87,-2.74,5.86,5.86,5.86
43.90,8.68,8.68,2.83,2.83,-2.83,-2.83,-2.68,5.85,5.85,5.85
44.33,8.64,8.64,2.80,2.80,-2.80,-2.80,-2.63,5.84,5.84,5.84
44.78,8.60,8.59,2.77,2.77,-2.77,-2.77,-2.58,5.83,5.83,5.83
45.23,8.55,8.55,2.73,2.74,-2.73,-2.74,-2.53,5.81,5.82,5.82
45.68,8.51,8.50,2.70,2.70,-2.70,-2.70,-2.48,5.81,5.80,5.80
46.13,8.46,8.46,2.67,2.67,-2.67,-2.67,-2.44,5.79,5.79,5.79
46.60,8.41,8.41,2.63,2.63,-2.63,-2.64,-2.39,5.77,5.78,5.78
47.06,8.37,8.36,2.60,2.60,-2.60,-2.61,-2.35,5.77,5.76,5.76
47.53,8.32,8.32,2.57,2.57,-2.57,-2.57,-2.31,5.75,5.75,5.75
48.01,8.27,8.27,2.53,2.53,-2.53,-2.54,-2.27,5.73,5.74,5.74
48.49,8.23,8.22,2.51,2.50,-2.50,-2.51,-2.24,5.73,5.72,5.72
48.97,8.18,8.18,2.47,2.47,-2.47,-2.47,-2.20,5.71,5.71,5.71
49.46,8.13,8.13,2.44,2.44,-2.44,-2.44,-2.17,5.69,5.69,5.69
49.96,8.08,8.08,2.40,2.40,-2.40,-2.41,-2.14,5.67,5.67,5.67
50.46,8.03,8.03,2.37,2.37,-2.37,-2.38,-2.11,5.66,5.66,5.66
50.96,7.98,7.98,2.34,2.34,-2.34,-2.34,-2.08,5.64,5.64,5.64
51.47,7.93,7.93,2.30,2.31,-2.30,-2.31,-2.06,5.62,5.62,5.62
51.99,7.88,7.88,2.27,2.27,-2.27,-2.28,-2.03,5.61,5.60,5.60
52.51,7.83,7.82,2.24,2.24,-2.24,-2.24,-2.01,5.59,5.58,5.58
53.03,7.77,7.77,2.20,2.21,-2.21,-2.21,-1.98,5.56,5.56,5.56
53.56,7.72,7.72,2.17,2.18,-2.18,-2.18,-1.96,5.54,5.54,5.54
54.10,7.67,7.67,2.15,2.14,-2.14,-2.14,-1.94,5.52,5.52,5.52
54.64,7.62,7.61,2.12,2.11,-2.11,-2.11,-1.92,5.50,5.50,5.50
55.18,7.56,7.56,2.08,2.08,-2.08,-2.08,-1.90,5.48,5.48,5.48
55.74,7.51,7.51,2.05,2.05,-2.05,-2.04,-1.88,5.46,5.45,5.45
56.29,7.45,7.45,2.02,2.02,-2.02,-2.01,-1.86,5.43,5.43,5.43
56.86,7.40,7.39,1.99,1.99,-1.99,-1.98,-1.84,5.41,5.40,5.41
57.42,7.34,7.34,1.96,1.96,-1.96,-1.95,-1.82,5.38,5.38,5.38
58.00,7.28,7.28,1.92,1.93,-1.93,-1.92,-1.80,5.35,5.35,5.35
58.58,7.23,7.22,1.90,1.90,-1.90,-1.88,-1.78,5.33,5.33,5.33
59.16,7.17,7.17,1.87,1.87,-1.87,-1.85,-1.76,5.30,5.30,5.30
59.76,7.11,7.11,1.84,1.84,-1.84,-1.82,-1.74,5.27,5.27,5.27
60.35,7.05,7.05,1.81,1.81,-1.81,-1.79,-1.72,5.24,5.24,5.24
60.96,6.99,6.99,1.78,1.78,-1.78,-1.76,-1.70,5.21,5.21,5.21
61.57,6.93,6.92,1.75,1.75,-1.75,-1.73,-1.67,5.18,5.18,5.18
62.18,6.86,6.86,1.71,1.72,-1.71,-1.70,-1.65,5.14,5.15,5.14
62.80,6.80,6.79,1.68,1.68,-1.68,-1.67,-1.63,5.11,5.11,5.11
63.43,6.73,6.73,1.65,1.65,-1.65,-1.64,-1.60,5.08,5.08,5.08
64.07,6.66,6.66,1.62,1.62,-1.62,-1.61,-1.58,5.04,5.04,5.04
64.71,6.60,6.59,1.59,1.59,-1.59,-1.58,-1.55,5.01,5.01,5.01
65.35,6.53,6.53,1.56,1.56,-1.56,-1.55,-1.53,4.97,4.97,4.97
66.01,6.46,6.46,1.53,1.53,-1.53,-1.52,-1.50,4.93,4.93,4.93
66.67,6.39,6.39,1.50,1.50,-1.50,-1.49,-1.48,4.89,4.89,4.89
67.33,6.32,6.32,1.46,1.47,-1.47,-1.46,-1.45,4.85,4.85,4.85
68.01,6.25,6.25,1.44,1.44,-1.44,-1.43,-1.42,4.81,4.81,4.81
68.69,6.18,6.17,1.41,1.40,-1.41,-1.41,-1.39,4.77,4.77,4.77
69.37,6.10,6.10,1.37,1.38,-1.38,-1.38,-1.36,4.72,4.73,4.73
70.07,6.03,6.03,1.35,1.35,-1.35,-1.35,-1.33,4.68,4.68,4.68
70.77,5.96,5.95,1.32,1.32,-1.32,-1.33,-1.30,4.64,4.64,4.64
71.48,5.88,5.88,1.29,1.29,-1.29,-1.30,-1.27,4.59,4.59,4.59
72.19,5.81,5.80,1.26,1.26,-1.26,-1.27,-1.24,4.55,4.54,4.54
72.91,5.73,5.73,1.23,1.23,-1.23,-1.25,-1.21,4.49,4.49,4.49
73.64,5.65,5.65,1.20,1.21,-1.21,-1.22,-1.18,4.44,4.45,4.45
74.38,5.58,5.57,1.18,1.18,-1.18,-1.20,-1.15,4.40,4.40,4.40
75.12,5.50,5.50,1.15,1.15,-1.15,-1.17,-1.12,4.35,4.35,4.34
75.87,5.42,5.42,1.12,1.13,-1.12,-1.15,-1.09,4.29,4.29,4.29
76.63,5.34,5.34,1.10,1.10,-1.10,-1.12,-1.06,4.24,4.24,4.24
77.40,5.26,5.26,1.07,1.07,-1.07,-1.10,-1.03,4.18,4.18,4.18
78.17,5.18,5.18,1.05,1.05,-1.05,-1.07,-1.00,4.13,4.13,4.13
78.95,5.10,5.10,1.02,1.02,-1.03,-1.05,-0.97,4.07,4.07,4.07
79.74,5.02,5.02,1.00,1.00,-1.00,-1.03,-0.95,4.02,4.02,4.02
80.54,4.94,4.94,0.98,0.98,-0.98,-1.00,-0.92,3.96,3.96,3.96
81.35,4.86,4.85,0.96,0.96,-0.95,-0.98,-0.89,3.90,3.90,3.90
82.16,4.77,4.77,0.93,0.93,-0.93,-0.96,-0.86,3.84,3.84,3.84
82.98,4.69,4.68,0.91,0.91,-0.91,-0.93,-0.84,3.78,3.77,3.78
83.81,4.60,4.60,0.88,0.89,-0.89,-0.91,-0.81,3.71,3.71,3.71
84.65,4.52,4.52,0.86,0.86,-0.87,-0.89,-0.78,3.65,3.65,3.65
85.50,4.44,4.43,0.85,0.85,-0.85,-0.87,-0.76,3.59,3.59,3.59
86.35,4.35,4.35,0.82,0.83,-0.83,-0.85,-0.73,3.52,3.52,3.52
87.22,4.27,4.27,0.81,0.81,-0.81,-0.82,-0.71,3.46,3.46,3.46
88.09,4.18,4.18,0.78,0.79,-0.79,-0.80,-0.68,3.39,3.39,3.39
88.97,4.10,4.10,0.77,0.77,-0.77,-0.78,-0.66,3.33,3.33,3.33
89.86,4.01,4.01,0.75,0.75,-0.75,-0.76,-0.63,3.26,3.26,3.26
90.76,3.93,3.92,0.74,0.73,-0.73,-0.74,-0.61,3.20,3.19,3.19
91.66,3.84,3.84,0.71,0.71,-0.71,-0.72,-0.59,3.12,3.12,3.12
92.58,3.75,3.75,0.69,0.70,-0.70,-0.70,-0.57,3.05,3.05,3.05
93.51,3.66,3.66,0.67,0.68,-0.68,-0.68,-0.55,2.98,2.98,2.98
94.44,3.58,3.57,0.66,0.66,-0.66,-0.66,-0.52,2.92,2.91,2.91
95.39,3.49,3.49,0.65,0.64,-0.64,-0.64,-0.50,2.84,2.84,2.84
96.34,3.40,3.40,0.63,0.63,-0.63,-0.62,-0.48,2.77,2.77,2.77
97.30,3.31,3.31,0.61,0.61,-0.61,-0.60,-0.46,2.70,2.70,2.70
98.28,3.22,3.22,0.59,0.59,-0.59,-0.58,-0.44,2.62,2.62,2.63
99.26,3.13,3.13,0.57,0.57,-0.58,-0.57,-0.42,2.55,2.55,2.56
100.25,3.05,3.04,0.56,0.56,-0.56,-0.55,-0.41,2.49,2.48,2.48
101.25,2.96,2.96,0.55,0.55,-0.54,-0.53,-0.39,2.41,2.41,2.41
102.27,2.87,2.87,0.53,0.53,-0.53,-0.51,-0.37,2.34,2.34,2.34
103.29,2.78,2.78,0.51,0.51,-0.51,-0.49,-0.35,2.27,2.27,2.26
104.32,2.69,2.69,0.50,0.50,-0.50,-0.48,-0.34,2.19,2.19,2.19
105.37,2.60,2.60,0.48,0.48,-0.48,-0.46,-0.32,2.12,2.12,2.12
106.42,2.51,2.51,0.46,0.46,-0.46,-0.44,-0.31,2.04,2.04,2.05
107.48,2.42,2.42,0.44,0.45,-0.45,-0.43,-0.29,1.97,1.97,1.97
108.56,2.33,2.33,0.43,0.43,-0.43,-0.41,-0.28,1.90,1.90,1.90
109.64,2.25,2.24,0.42,0.42,-0.41,-0.40,-0.26,1.83,1.83,1.83
110.74,2.16,2.16,0.40,0.40,-0.40,-0.38,-0.25,1.76,1.76,1.75
111.85,2.07,2.07,0.39,0.39,-0.39,-0.37,-0.24,1.68,1.68,1.68
112.97,1.98,1.98,0.37,0.37,-0.37,-0.35,-0.23,1.61,1.61,1.61
114.10,1.90,1.89,0.36,0.36,-0.36,-0.34,-0.22,1.54,1.54,1.54
115.24,1.81,1.81,0.34,0.34,-0.34,-0.33,-0.21,1.46,1.46,1.47
116.39,1.73,1.73,0.33,0.33,-0.33,-0.31,-0.20,1.40,1.40,1.40
117.55,1.65,1.65,0.32,0.32,-0.32,-0.30,-0.19,1.33,1.33,1.33
118.73,1.57,1.56,0.31,0.31,-0.31,-0.29,-0.19,1.26,1.26,1.26
119.92,1.48,1.48,0.29,0.29,-0.29,-0.28,-0.18,1.18,1.19,1.19
121.12,1.40,1.40,0.28,0.28,-0.28,-0.27,-0.18,1.12,1.12,1.12
122.33,1.32,1.32,0.27,0.27,-0.27,-0.26,-0.17,1.05,1.05,1.05
123.55,1.24,1.24,0.26,0.26,-0.25,-0.25,-0.17,0.98,0.98,0.98
124.79,1.16,1.16,0.24,0.24,-0.24,-0.24,-0.17,0.92,0.91,0.91
126.03,1.08,1.08,0.23,0.23,-0.23,-0.23,-0.17,0.85,0.85,0.85
127.29,1.00,1.00,0.21,0.22,-0.22,-0.23,-0.17,0.78,0.78,0.78
128.57,0.93,0.93,0.21,0.21,-0.21,-0.22,-0.17,0.72,0.72,0.72
129.85,0.86,0.85,0.20,0.20,-0.20,-0.21,-0.17,0.66,0.66,0.65
131.15,0.78,0.78,0.19,0.19,-0.19,-0.21,-0.18,0.59,0.59,0.59
132.46,0.71,0.71,0.18,0.18,-0.18,-0.20,-0.18,0.53,0.53,0.53
133.79,0.64,0.64,0.17,0.17,-0.17,-0.20,-0.19,0.46,0.47,0.47
135.12,0.58,0.57,0.17,0.17,-0.16,-0.19,-0.19,0.41,0.41,0.41
136.48,0.51,0.51,0.16,0.16,-0.16,-0.19,-0.20,0.35,0.35,0.35
137.84,0.45,0.44,0.16,0.15,-0.15,-0.19,-0.21,0.30,0.29,0.29
139.22,0.38,0.38,0.14,0.15,-0.15,-0.19,-0.22,0.23,0.23,0.23
140.61,0.32,0.32,0.14,0.14,-0.14,-0.19,-0.23,0.17,0.17,0.18
142.02,0.26,0.26,0.14,0.14,-0.14,-0.19,-0.24,0.12,0.12,0.12
143.44,0.20,0.20,0.13,0.13,-0.14,-0.19,-0.25,0.06,0.06,0.07
144.87,0.15,0.15,0.14,0.13,-0.14,-0.19,-0.26,0.01,0.01,0.01
146.32,0.10,0.10,0.14,0.14,-0.14,-0.19,-0.28,-0.04,-0.04,-0.04
147.78,0.05,0.05,0.14,0.14,-0.14,-0.19,-0.29,-0.09,-0.09,-0.09
149.26,-0.00,-0.00,0.14,0.14,-0.14,-0.20,-0.30,-0.14,-0.14,-0.14
150.75,-0.05,-0.05,0.14,0.14,-0.14,-0.20,-0.32,-0.19,-0.19,-0.19
152.26,-0.09,-0.09,0.15,0.15,-0.14,-0.21,-0.33,-0.24,-0.24,-0.24
153.78,-0.13,-0.14,0.16,0.15,-0.15,-0.21,-0.35,-0.28,-0.29,-0.29
155.32,-0.18,-0.18,0.15,0.16,-0.16,-0.22,-0.37,-0.34,-0.34,-0.34
156.88,-0.22,-0.22,0.16,0.16,-0.16,-0.23,-0.38,-0.39,-0.39,-0.38
158.44,-0.25,-0.26,0.17,0.17,-0.17,-0.24,-0.40,-0.43,-0.43,-0.42
160.03,-0.29,-0.29,0.18,0.18,-0.19,-0.25,-0.42,-0.48,-0.47,-0.47
161.63,-0.31,-0.32,0.21,0.20,-0.20,-0.26,-0.44,-0.51,-0.52,-0.52
163.24,-0.34,-0.34,0.22,0.22,-0.21,-0.27,-0.45,-0.56,-0.56,-0.56
164.88,-0.37,-0.37,0.23,0.23,-0.23,-0.28,-0.47,-0.60,-0.60,-0.60
166.53,-0.39,-0.39,0.25,0.25,-0.25,-0.29,-0.49,-0.64,-0.64,-0.64
168.19,-0.41,-0.41,0.27,0.27,-0.27,-0.30,-0.51,-0.68,-0.68,-0.68
169.87,-0.43,-0.43,0.28,0.29,-0.29,-0.31,-0.53,-0.72,-0.72,-0.72
171.57,-0.44,-0.45,0.31,0.31,-0.31,-0.33,-0.55,-0.75,-0.75,-0.75
173.29,-0.46,-0.46,0.33,0.33,-0.33,-0.34,-0.58,-0.79,-0.79,-0.79
175.02,-0.47,-0.47,0.35,0.35,-0.35,-0.36,-0.60,-0.82,-0.82,-0.82
176.77,-0.48,-0.48,0.37,0.37,-0.37,-0.37,-0.62,-0.86,-0.86,-0.86
178.54,-0.49,-0.49,0.40,0.40,-0.40,-0.39,-0.64,-0.89,-0.89,-0.89
180.32,-0.50,-0.50,0.42,0.42,-0.42,-0.41,-0.67,-0.92,-0.92,-0.92
182.13,-0.50,-0.51,0.45,0.45,-0.45,-0.43,-0.69,-0.95,-0.95,-0.95
183.95,-0.51,-0.51,0.47,0.47,-0.47,-0.45,-0.71,-0.99,-0.98,-0.98
185.79,-0.51,-0.51,0.50,0.50,-0.50,-0.47,-0.74,-1.01,-1.01,-1.01
187.65,-0.51,-0.51,0.53,0.53,-0.53,-0.49,-0.76,-1.04,-1.04,-1.04
189.52,-0.51,-0.51,0.55,0.55,-0.55,-0.51,-0.79,-1.07,-1.07,-1.07
191.42,-0.51,-0.51,0.58,0.58,-0.58,-0.53,-0.81,-1.09,-1.09,-1.09
193.33,-0.51,-0.51,0.61,0.61,-0.61,-0.55,-0.84,-1.12,-1.12,-1.12
195.27,-0.50,-0.51,0.64,0.64,-0.64,-0.57,-0.87,-1.14,-1.15,-1.15
197.22,-0.50,-0.50,0.67,0.67,-0.67,-0.60,-0.89,-1.17,-1.17,-1.17
199.19,-0.49,-0.50,0.70,0.70,-0.70,-0.62,-0.92,-1.19,-1.19,-1.19
201.18,-0.49,-0.49,0.72,0.73,-0.73,-0.64,-0.95,-1.22,-1.22,-1.22
203.19,-0.48,-0.48,0.76,0.76,-0.75,-0.67,-0.97,-1.24,-1.24,-1.24
205.23,-0.47,-0.47,0.79,0.79,-0.78,-0.69,-1.00,-1.26,-1.26,-1.26
207.28,-0.46,-0.47,0.82,0.81,-0.81,-0.72,-1.03,-1.28,-1.28,-1.28
209.35,-0.46,-0.46,0.84,0.84,-0.84,-0.75,-1.05,-1.30,-1.30,-1.30
211.44,-0.45,-0.45,0.87,0.87,-0.87,-0.77,-1.08,-1.32,-1.32,-1.32
213.56,-0.44,-0.44,0.90,0.90,-0.90,-0.80,-1.11,-1.34,-1.34,-1.34
215.69,-0.42,-0.43,0.93,0.93,-0.93,-0.83,-1.13,-1.35,-1.36,-1.36
217.85,-0.41,-0.41,0.96,0.96,-0.96,-0.85,-1.16,-1.37,-1.37,-1.37
220.03,-0.40,-0.40,0.99,0.99,-0.99,-0.88,-1.18,-1.39,-1.39,-1.39
222.23,-0.39,-0.39,1.02,1.02,-1.02,-0.91,-1.21,-1.41,-1.41,-1.41
224.45,-0.38,-0.38,1.04,1.04,-1.04,-0.94,-1.23,-1.43,-1.42,-1.42
226.70,-0.36,-0.37,1.08,1.07,-1.07,-0.97,-1.25,-1.44,-1.44,-1.44
228.96,-0.35,-0.35,1.10,1.10,-1.10,-1.00,-1.27,-1.46,-1.46,-1.45
231.25,-0.34,-0.34,1.13,1.13,-1.13,-1.03,-1.29,-1.48,-1.47,-1.47
233.57,-0.32,-0.33,1.16,1.16,-1.16,-1.06,-1.31,-1.48,-1.49,-1.48
235.90,-0.31,-0.31,1.19,1.19,-1.19,-1.09,-1.33,-1.50,-1.50,-1.51
238.26,-0.29,-0.30,1.23,1.22,-1.22,-1.12,-1.35,-1.51,-1.52,-1.52
240.64,-0.28,-0.28,1.25,1.25,-1.25,-1.15,-1.36,-1.53,-1.53,-1.53
243.05,-0.27,-0.27,1.27,1.27,-1.27,-1.18,-1.37,-1.55,-1.54,-1.54
245.48,-0.25,-0.26,1.30,1.30,-1.30,-1.21,-1.39,-1.55,-1.56,-1.56
247.93,-0.24,-0.24,1.32,1.33,-1.33,-1.25,-1.40,-1.57,-1.57,-1.57
250.41,-0.22,-0.22,1.36,1.35,-1.35,-1.28,-1.40,-1.58,-1.58,-1.58
252.92,-0.21,-0.21,1.38,1.38,-1.38,-1.31,-1.41,-1.59,-1.59,-1.59
255.45,-0.19,-0.20,1.41,1.40,-1.40,-1.34,-1.42,-1.60,-1.60,-1.60
258.00,-0.18,-0.18,1.43,1.43,-1.43,-1.37,-1.42,-1.61,-1.61,-1.61
260.58,-0.16,-0.16,1.46,1.46,-1.45,-1.40,-1.42,-1.62,-1.62,-1.62
263.19,-0.14,-0.15,1.48,1.48,-1.48,-1.43,-1.42,-1.62,-1.63,-1.63
265.82,-0.13,-0.13,1.50,1.50,-1.50,-1.46,-1.42,-1.64,-1.64,-1.64
268.48,-0.12,-0.12,1.52,1.53,-1.53,-1.49,-1.42,-1.65,-1.65,-1.65
271.16,-0.10,-0.11,1.55,1.55,-1.55,-1.52,-1.42,-1.65,-1.66,-1.65
273.87,-0.09,-0.09,1.57,1.57,-1.57,-1.54,-1.41,-1.66,-1.66,-1.66
276.61,-0.07,-0.08,1.60,1.59,-1.59,-1.57,-1.41,-1.66,-1.67,-1.67
279.38,-0.06,-0.06,1.61,1.61,-1.61,-1.60,-1.40,-1.67,-1.67,-1.68
282.17,-0.05,-0.05,1.63,1.63,-1.63,-1.63,-1.40,-1.68,-1.68,-1.68
284.99,-0.04,-0.04,1.64,1.64,-1.64,-1.65,-1.39,-1.69,-1.68,-1.68
287.84,-0.02,-0.03,1.65,1.66,-1.66,-1.68,-1.38,-1.68,-1.68,-1.68
290.72,-0.01,-0.01,1.67,1.67,-1.67,-1.70,-1.38,-1.68,-1.68,-1.68
293.63,-0.00,-0.00,1.69,1.68,-1.68,-1.72,-1.37,-1.68,-1.68,-1.69
296.57,0.01,0.01,1.69,1.69,-1.69,-1.75,-1.36,-1.68,-1.68,-1.69
299.53,0.02,0.02,1.70,1.70,-1.70,-1.77,-1.35,-1.69,-1.69,-1.68
302.53,0.03,0.03,1.71,1.71,-1.71,-1.79,-1.35,-1.69,-1.69,-1.69
305.55,0.04,0.04,1.72,1.72,-1.72,-1.80,-1.34,-1.69,-1.69,-1.68
308.61,0.05,0.05,1.73,1.73,-1.73,-1.82,-1.33,-1.69,-1.69,-1.69
311.69,0.06,0.06,1.74,1.74,-1.74,-1.84,-1.33,-1.68,-1.68,-1.68
314.81,0.07,0.07,1.75,1.75,-1.75,-1.85,-1.32,-1.68,-1.68,-1.69
317.96,0.08,0.08,1.76,1.76,-1.76,-1.87,-1.31,-1.68,-1.68,-1.68
321.14,0.09,0.09,1.77,1.77,-1.77,-1.88,-1.31,-1.68,-1.68,-1.69
324.35,0.10,0.10,1.78,1.78,-1.78,-1.89,-1.31,-1.68,-1.68,-1.68
327.59,0.11,0.11,1.78,1.78,-1.79,-1.90,-1.30,-1.68,-1.68,-1.67
330.87,0.12,0.12,1.80,1.79,-1.79,-1.91,-1.30,-1.68,-1.68,-1.68
334.18,0.13,0.13,1.80,1.80,-1.80,-1.92,-1.30,-1.67,-1.67,-1.67
337.52,0.14,0.13,1.81,1.81,-1.80,-1.92,-1.30,-1.67,-1.67,-1.68
340.90,0.14,0.14,1.81,1.81,-1.81,-1.93,-1.30,-1.67,-1.67,-1.67
344.30,0.15,0.15,1.81,1.81,-1.81,-1.93,-1.30,-1.66,-1.66,-1.66
347.75,0.16,0.15,1.81,1.81,-1.81,-1.93,-1.31,-1.66,-1.66,-1.66
351.23,0.16,0.16,1.82,1.81,-1.82,-1.93,-1.31,-1.66,-1.65,-1.66
354.74,0.17,0.17,1.81,1.82,-1.82,-1.93,-1.32,-1.65,-1.65,-1.64
358.28,0.18,0.17,1.82,1.82,-1.82,-1.92,-1.32,-1.64,-1.64,-1.65
361.87,0.18,0.18,1.81,1.82,-1.82,-1.92,-1.33,-1.64,-1.64,-1.64
365.49,0.19,0.18,1.82,1.82,-1.82,-1.91,-1.34,-1.63,-1.63,-1.63
369.14,0.19,0.19,1.82,1.82,-1.82,-1.91,-1.35,-1.63,-1.63,-1.63
372.83,0.20,0.19,1.81,1.82,-1.82,-1.90,-1.36,-1.62,-1.62,-1.62
376.56,0.20,0.20,1.82,1.81,-1.81,-1.89,-1.37,-1.62,-1.62,-1.62
380.33,0.20,0.20,1.81,1.81,-1.81,-1.88,-1.38,-1.61,-1.61,-1.61
384.13,0.20,0.20,1.81,1.81,-1.81,-1.86,-1.39,-1.61,-1.61,-1.61
387.97,0.20,0.20,1.80,1.80,-1.80,-1.85,-1.41,-1.61,-1.60,-1.61
391.85,0.21,0.20,1.79,1.80,-1.80,-1.84,-1.42,-1.59,-1.59,-1.59
395.77,0.21,0.21,1.80,1.79,-1.79,-1.82,-1.44,-1.59,-1.59,-1.59
399.73,0.21,0.21,1.79,1.79,-1.79,-1.81,-1.45,-1.58,-1.58,-1.58
403.72,0.21,0.21,1.78,1.78,-1.78,-1.79,-1.47,-1.58,-1.58,-1.57
407.76,0.21,0.21,1.78,1.78,-1.78,-1.77,-1.49,-1.57,-1.57,-1.58
411.84,0.21,0.21,1.77,1.77,-1.77,-1.75,-1.50,-1.57,-1.57,-1.57
415.96,0.21,0.21,1.77,1.77,-1.77,-1.73,-1.52,-1.56,-1.56,-1.56
420.12,0.21,0.20,1.77,1.76,-1.76,-1.71,-1.54,-1.55,-1.56,-1.56
424.32,0.20,0.20,1.75,1.75,-1.75,-1.69,-1.55,-1.56,-1.55,-1.55
428.56,0.20,0.20,1.74,1.74,-1.74,-1.67,-1.57,-1.55,-1.55,-1.54
432.85,0.20,0.19,1.73,1.73,-1.73,-1.65,-1.59,-1.54,-1.54,-1.53
437.18,0.19,0.19,1.72,1.72,-1.72,-1.62,-1.60,-1.53,-1.53,-1.54
441.55,0.19,0.18,1.71,1.71,-1.71,-1.60,-1.62,-1.52,-1.52,-1.53
445.96,0.18,0.18,1.70,1.69,-1.69,-1.58,-1.63,-1.51,-1.51,-1.52
450.42,0.17,0.17,1.67,1.67,-1.68,-1.56,-1.65,-1.51,-1.51,-1.50
454.93,0.17,0.16,1.66,1.66,-1.66,-1.53,-1.66,-1.49,-1.50,-1.49
459.48,0.16,0.16,1.64,1.64,-1.65,-1.51,-1.67,-1.49,-1.49,-1.48
464.07,0.15,0.15,1.63,1.63,-1.63,-1.48,-1.68,-1.48,-1.48,-1.48
468.71,0.14,0.14,1.61,1.61,-1.61,-1.46,-1.69,-1.48,-1.47,-1.47
473.40,0.14,0.13,1.60,1.60,-1.60,-1.43,-1.70,-1.46,-1.46,-1.47
478.13,0.13,0.13,1.58,1.58,-1.58,-1.41,-1.70,-1.45,-1.46,-1.46
482.91,0.12,0.12,1.56,1.57,-1.56,-1.39,-1.70,-1.45,-1.45,-1.45
487.74,0.11,0.11,1.55,1.55,-1.55,-1.36,-1.70,-1.44,-1.44,-1.44
492.62,0.10,0.10,1.53,1.53,-1.53,-1.34,-1.70,-1.43,-1.43,-1.43
497.55,0.09,0.09,1.51,1.51,-1.51,-1.31,-1.70,-1.42,-1.42,-1.42
