frequency,raw,smoothed,error,error_smoothed,equalization,parametric_eq,fixed_band_eq,equalized_raw,equalized_smoothed,target
20.00,6.61,6.61,-0.92,-0.92,0.93,-0.13,-0.24,7.54,7.54,7.54
20.20,6.65,6.66,-0.88,-0.88,0.88,-0.13,-0.24,7.54,7.54,7.54
20.40,6.69,6.70,-0.84,-0.84,0.84,-0.14,-0.25,7.53,7.53,7.54
20.61,6.74,6.74,-0.79,-0.79,0.79,-0.14,-0.26,7.53,7.53,7.53
20.81,6.79,6.79,-0.75,-0.75,0.75,-0.15,-0.26,7.53,7.53,7.53
21.02,6.83,6.83,-0.70,-0.70,0.70,-0.16,-0.27,7.53,7.53,7.53
21.23,6.87,6.88,-0.66,-0.66,0.65,-0.16,-0.28,7.53,7.53,7.53
21.44,6.93,6.93,-0.61,-0.61,0.61,-0.17,-0.29,7.53,7.53,7.53
21.66,6.97,6.97,-0.56,-0.56,0.56,-0.18,-0.29,7.53,7.53,7.53
21.87,7.03,7.02,-0.50,-0.51,0.51,-0.18,-0.30,7.53,7.53,7.53
22.09,7.07,7.07,-0.46,-0.46,0.46,-0.19,-0.31,7.53,7.53,7.53
22.31,7.12,7.11,-0.41,-0.41,0.41,-0.20,-0.32,7.53,7.53,7.53
22.54,7.16,7.16,-0.36,-0.37,0.37,-0.21,-0.33,7.53,7.53,7.53
22.76,7.20,7.21,-0.32,-0.32,0.32,-0.21,-0.34,7.52,7.53,7.53
22.99,7.25,7.25,-0.27,-0.27,0.28,-0.22,-0.35,7.53,7.53,7.53
23.22,7.29,7.29,-0.23,-0.23,0.23,-0.23,-0.35,7.53,7.53,7.52
23.45,7.33,7.34,-0.19,-0.19,0.19,-0.24,-0.36,7.52,7.52,7.52
23.69,7.37,7.37,-0.15,-0.15,0.15,-0.25,-0.37,7.52,7.52,7.52
23.92,7.41,7.41,-0.11,-0.11,0.10,-0.25,-0.38,7.52,7.52,7.52
24.16,7.45,7.46,-0.07,-0.06,0.06,-0.26,-0.39,7.52,7.52,7.52
24.40,7.50,7.49,-0.02,-0.02,0.03,-0.27,-0.40,7.52,7.52,7.52
24.65,7.53,7.53,0.02,0.01,-0.01,-0.28,-0.41,7.52,7.52,7.52
24.89,7.57,7.57,0.05,0.05,-0.05,-0.29,-0.43,7.51,7.52,7.52
25.14,7.60,7.60,0.09,0.09,-0.09,-0.30,-0.44,7.52,7.51,7.51
25.39,7.64,7.64,0.12,0.12,-0.12,-0.31,-0.45,7.51,7.51,7.51
25.65,7.67,7.67,0.16,0.16,-0.16,-0.32,-0.46,7.52,7.51,7.51
25.91,7.70,7.70,0.19,0.19,-0.19,-0.33,-0.47,7.51,7.51,7.51
26.16,7.73,7.74,0.23,0.23,-0.23,-0.34,-0.48,7.51,7.51,7.51
26.43,7.76,7.76,0.26,0.26,-0.26,-0.35,-0.49,7.51,7.51,7.51
26.69,7.79,7.79,0.29,0.29,-0.29,-0.37,-0.50,7.50,7.50,7.51
26.96,7.82,7.82,0.32,0.32,-0.32,-0.38,-0.51,7.50,7.50,7.50
27.23,7.85,7.86,0.35,0.35,-0.35,-0.39,-0.52,7.50,7.50,7.50
27.50,7.88,7.88,0.38,0.38,-0.38,-0.40,-0.54,7.50,7.50,7.50
27.77,7.91,7.91,0.42,0.41,-0.41,-0.41,-0.55,7.50,7.50,7.50
28.05,7.93,7.94,0.44,0.44,-0.44,-0.43,-0.56,7.49,7.49,7.50
28.33,7.96,7.97,0.47,0.47,-0.47,-0.44,-0.57,7.49,7.49,7.49
28.62,7.99,7.99,0.50,0.50,-0.50,-0.45,-0.58,7.49,7.49,7.49
28.90,8.02,8.02,0.53,0.53,-0.53,-0.47,-0.59,7.49,7.49,7.49
29.19,8.04,8.05,0.56,0.56,-0.56,-0.48,-0.60,7.48,7.49,7.49
29.48,8.07,8.07,0.59,0.59,-0.59,-0.50,-0.61,7.49,7.48,7.48
29.78,8.09,8.10,0.61,0.61,-0.61,-0.51,-0.62,7.48,7.48,7.48
30.08,8.12,8.12,0.64,0.64,-0.64,-0.53,-0.62,7.48,7.48,7.48
30.38,8.14,8.14,0.67,0.67,-0.67,-0.54,-0.63,7.48,7.48,7.48
30.68,8.16,8.17,0.69,0.69,-0.69,-0.56,-0.64,7.47,7.48,7.47
30.99,8.18,8.19,0.71,0.71,-0.71,-0.58,-0.65,7.47,7.47,7.47
31.30,8.20,8.20,0.74,0.74,-0.74,-0.59,-0.65,7.47,7.47,7.47
31.61,8.22,8.22,0.76,0.76,-0.76,-0.61,-0.66,7.47,7.46,7.47
31.93,8.23,8.24,0.77,0.78,-0.78,-0.63,-0.67,7.46,7.46,7.46
32.24,8.25,8.25,0.80,0.80,-0.80,-0.65,-0.67,7.46,7.46,7.46
32.57,8.27,8.27,0.82,0.82,-0.82,-0.67,-0.68,7.46,7.45,7.46
32.89,8.28,8.29,0.83,0.84,-0.84,-0.69,-0.68,7.45,7.45,7.45
33.22,8.30,8.30,0.86,0.86,-0.85,-0.71,-0.69,7.45,7.45,7.45
33.55,8.31,8.32,0.87,0.87,-0.87,-0.73,-0.69,7.44,7.44,7.44
33.89,8.33,8.33,0.89,0.89,-0.89,-0.75,-0.70,7.44,7.44,7.44
34.23,8.34,8.34,0.91,0.91,-0.91,-0.77,-0.70,7.44,7.44,7.44
34.57,8.35,8.35,0.92,0.92,-0.92,-0.79,-0.71,7.43,7.43,7.43
34.92,8.36,8.37,0.94,0.94,-0.94,-0.81,-0.71,7.42,7.43,7.43
35.27,8.37,8.38,0.95,0.96,-0.96,-0.84,-0.71,7.42,7.42,7.42
35.62,8.39,8.39,0.98,0.97,-0.97,-0.86,-0.72,7.42,7.42,7.42
35.97,8.39,8.40,0.98,0.99,-0.99,-0.88,-0.72,7.41,7.41,7.41
36.33,8.40,8.41,1.00,1.00,-1.00,-0.90,-0.73,7.40,7.41,7.41
36.70,8.41,8.41,1.01,1.01,-1.01,-0.92,-0.73,7.40,7.40,7.40
37.06,8.42,8.42,1.03,1.03,-1.03,-0.95,-0.73,7.40,7.40,7.40
37.43,8.43,8.43,1.05,1.04,-1.04,-0.97,-0.74,7.39,7.39,7.39
37.81,8.43,8.44,1.05,1.05,-1.05,-0.99,-0.74,7.38,7.38,7.38
38.19,8.44,8.44,1.07,1.07,-1.07,-1.01,-0.75,7.38,7.38,7.38
38.57,8.44,8.45,1.07,1.08,-1.08,-1.03,-0.76,7.37,7.37,7.37
38.95,8.45,8.45,1.09,1.09,-1.09,-1.05,-0.76,7.36,7.36,7.36
39.34,8.45,8.46,1.10,1.10,-1.10,-1.07,-0.77,7.35,7.36,7.36
39.74,8.46,8.46,1.12,1.11,-1.11,-1.09,-0.78,7.35,7.35,7.35
40.14,8.46,8.46,1.12,1.12,-1.12,-1.10,-0.78,7.34,7.34,7.34
40.54,8.46,8.47,1.13,1.13,-1.13,-1.12,-0.79,7.33,7.33,7.33
40.94,8.46,8.46,1.14,1.14,-1.14,-1.13,-0.80,7.32,7.32,7.33
41.35,8.46,8.46,1.15,1.15,-1.15,-1.15,-0.81,7.32,7.32,7.32
41.76,8.46,8.47,1.16,1.16,-1.16,-1.16,-0.82,7.31,7.31,7.31
42.18,8.46,8.46,1.16,1.16,-1.16,-1.17,-0.83,7.30,7.30,7.30
42.60,8.46,8.46,1.17,1.17,-1.17,-1.18,-0.84,7.29,7.29,7.29
43.03,8.45,8.46,1.17,1.18,-1.18,-1.19,-0.85,7.28,7.28,7.28
43.46,8.45,8.45,1.18,1.18,-1.19,-1.20,-0.86,7.27,7.27,7.27
43.90,8.45,8.45,1.19,1.19,-1.19,-1.20,-0.88,7.26,7.26,7.26
44.33,8.44,8.45,1.20,1.20,-1.20,-1.21,-0.89,7.24,7.25,7.25
44.78,8.44,8.44,1.21,1.21,-1.21,-1.22,-0.90,7.24,7.24,7.24
45.23,8.44,8.44,1.22,1.21,-1.21,-1.22,-0.92,7.23,7.23,7.23
45.68,8.43,8.44,1.22,1.22,-1.22,-1.23,-0.93,7.21,7.22,7.21
46.13,8.43,8.43,1.23,1.23,-1.23,-1.23,-0.95,7.21,7.20,7.20
46.60,8.42,8.42,1.24,1.24,-1.23,-1.23,-0.97,7.19,7.19,7.19
47.06,8.41,8.42,1.24,1.24,-1.24,-1.24,-0.98,7.18,7.18,7.18
47.53,8.40,8.40,1.24,1.24,-1.24,-1.24,-1.00,7.16,7.16,7.16
48.01,8.39,8.39,1.25,1.25,-1.25,-1.24,-1.02,7.15,7.15,7.15
48.49,8.38,8.38,1.25,1.25,-1.25,-1.25,-1.04,7.13,7.13,7.13
48.97,8.37,8.37,1.26,1.26,-1.26,-1.25,-1.06,7.12,7.12,7.12
49.46,8.36,8.36,1.26,1.26,-1.26,-1.26,-1.08,7.10,7.10,7.10
49.96,8.35,8.36,1.27,1.27,-1.27,-1.26,-1.10,7.09,7.09,7.09
50.46,8.34,8.34,1.28,1.28,-1.27,-1.26,-1.12,7.07,7.07,7.07
50.96,8.33,8.33,1.28,1.28,-1.28,-1.27,-1.14,7.06,7.05,7.05
51.47,8.31,8.32,1.28,1.28,-1.28,-1.27,-1.16,7.03,7.03,7.03
51.99,8.30,8.30,1.29,1.29,-1.29,-1.28,-1.19,7.02,7.01,7.01
52.51,8.28,8.29,1.29,1.29,-1.29,-1.28,-1.21,6.99,6.99,6.99
53.03,8.27,8.27,1.30,1.30,-1.30,-1.29,-1.23,6.98,6.97,6.97
53.56,8.25,8.26,1.30,1.30,-1.30,-1.29,-1.25,6.95,6.95,6.95
54.10,8.24,8.24,1.31,1.31,-1.31,-1.30,-1.28,6.93,6.93,6.93
54.64,8.22,8.23,1.31,1.32,-1.32,-1.31,-1.30,6.91,6.91,6.91
55.18,8.21,8.21,1.33,1.32,-1.32,-1.31,-1.32,6.89,6.89,6.89
55.74,8.19,8.20,1.33,1.33,-1.33,-1.32,-1.34,6.86,6.87,6.86
56.29,8.18,8.18,1.34,1.34,-1.34,-1.33,-1.36,6.85,6.84,6.84
56.86,8.16,8.16,1.35,1.35,-1.35,-1.33,-1.38,6.82,6.82,6.82
57.42,8.14,8.15,1.35,1.36,-1.35,-1.34,-1.41,6.79,6.79,6.79
58.00,8.12,8.12,1.36,1.36,-1.36,-1.35,-1.43,6.76,6.76,6.76
58.58,8.10,8.10,1.37,1.37,-1.37,-1.36,-1.45,6.73,6.73,6.74
59.16,8.08,8.08,1.38,1.38,-1.38,-1.36,-1.46,6.71,6.71,6.71
59.76,8.06,8.07,1.38,1.39,-1.38,-1.37,-1.48,6.68,6.68,6.68
60.35,8.04,8.04,1.39,1.39,-1.39,-1.38,-1.50,6.65,6.65,6.65
60.96,8.02,8.02,1.41,1.40,-1.40,-1.39,-1.51,6.62,6.62,6.62
61.57,7.99,8.00,1.41,1.41,-1.41,-1.40,-1.53,6.59,6.59,6.59
62.18,7.97,7.97,1.42,1.42,-1.42,-1.40,-1.54,6.56,6.55,6.56
62.80,7.94,7.95,1.42,1.42,-1.43,-1.41,-1.56,6.52,6.52,6.52
63.43,7.92,7.92,1.44,1.43,-1.44,-1.42,-1.57,6.49,6.48,6.49
64.07,7.89,7.90,1.44,1.45,-1.45,-1.43,-1.58,6.45,6.45,6.45
64.71,7.87,7.88,1.46,1.46,-1.46,-1.44,-1.59,6.42,6.42,6.42
65.35,7.85,7.85,1.47,1.47,-1.47,-1.45,-1.60,6.39,6.38,6.38
66.01,7.82,7.82,1.48,1.48,-1.48,-1.46,-1.61,6.34,6.35,6.34
66.67,7.79,7.80,1.49,1.49,-1.49,-1.48,-1.62,6.30,6.30,6.30
67.33,7.76,7.76,1.50,1.50,-1.50,-1.49,-1.63,6.26,6.26,6.26
68.01,7.73,7.73,1.51,1.51,-1.51,-1.50,-1.64,6.22,6.22,6.22
68.69,7.70,7.70,1.53,1.53,-1.53,-1.51,-1.65,6.18,6.18,6.18
69.37,7.67,7.67,1.54,1.54,-1.54,-1.53,-1.65,6.14,6.14,6.14
70.07,7.64,7.64,1.55,1.55,-1.55,-1.54,-1.66,6.09,6.09,6.09
70.77,7.61,7.61,1.57,1.57,-1.57,-1.56,-1.67,6.05,6.05,6.05
71.48,7.58,7.58,1.58,1.58,-1.58,-1.58,-1.67,6.00,6.00,6.00
72.19,7.55,7.55,1.60,1.60,-1.60,-1.60,-1.68,5.95,5.95,5.95
72.91,7.52,7.52,1.62,1.62,-1.62,-1.62,-1.69,5.90,5.90,5.91
73.64,7.49,7.49,1.64,1.64,-1.64,-1.64,-1.70,5.85,5.85,5.86
74.38,7.46,7.46,1.66,1.66,-1.66,-1.66,-1.71,5.80,5.80,5.81
75.12,7.43,7.44,1.68,1.68,-1.68,-1.68,-1.72,5.76,5.76,5.75
75.87,7.40,7.40,1.70,1.70,-1.70,-1.71,-1.73,5.71,5.71,5.70
76.63,7.37,7.37,1.73,1.72,-1.72,-1.73,-1.74,5.66,5.65,5.65
77.40,7.33,7.33,1.74,1.74,-1.74,-1.76,-1.75,5.60,5.60,5.59
78.17,7.29,7.29,1.75,1.75,-1.75,-1.78,-1.76,5.54,5.54,5.54
78.95,7.25,7.25,1.77,1.77,-1.77,-1.81,-1.78,5.48,5.48,5.48
79.74,7.21,7.22,1.79,1.79,-1.80,-1.84,-1.79,5.42,5.42,5.43
80.54,7.18,7.18,1.82,1.81,-1.82,-1.87,-1.81,5.36,5.36,5.37
81.35,7.15,7.15,1.85,1.84,-1.85,-1.90,-1.83,5.31,5.30,5.31
82.16,7.11,7.12,1.87,1.87,-1.88,-1.92,-1.85,5.24,5.25,5.25
82.98,7.09,7.09,1.91,1.90,-1.91,-1.95,-1.87,5.19,5.19,5.19
83.81,7.06,7.06,1.94,1.94,-1.94,-1.98,-1.89,5.13,5.13,5.13
84.65,7.03,7.04,1.97,1.97,-1.96,-2.01,-1.91,5.07,5.07,5.06
85.50,7.00,7.00,2.01,2.00,-1.99,-2.04,-1.94,5.01,5.01,5.00
86.35,6.95,6.96,2.02,2.02,-2.02,-2.07,-1.97,4.93,4.94,4.93
87.22,6.91,6.92,2.05,2.05,-2.05,-2.10,-1.99,4.87,4.87,4.87
88.09,6.87,6.87,2.07,2.07,-2.07,-2.12,-2.02,4.80,4.80,4.80
88.97,6.82,6.83,2.09,2.09,-2.10,-2.15,-2.06,4.73,4.73,4.74
89.86,6.78,6.79,2.12,2.12,-2.12,-2.18,-2.09,4.66,4.67,4.67
90.76,6.74,6.74,2.14,2.14,-2.15,-2.21,-2.12,4.60,4.60,4.60
91.66,6.70,6.70,2.17,2.17,-2.17,-2.23,-2.16,4.53,4.53,4.53
92.58,6.66,6.67,2.20,2.20,-2.20,-2.26,-2.20,4.46,4.47,4.46
93.51,6.62,6.62,2.23,2.23,-2.23,-2.29,-2.24,4.40,4.40,4.39
94.44,6.58,6.58,2.26,2.26,-2.26,-2.31,-2.28,4.33,4.33,4.32
95.39,6.53,6.54,2.28,2.29,-2.28,-2.34,-2.32,4.25,4.26,4.25
96.34,6.49,6.49,2.31,2.31,-2.31,-2.36,-2.36,4.19,4.18,4.18
97.30,6.44,6.44,2.33,2.33,-2.33,-2.38,-2.41,4.11,4.11,4.11
98.28,6.39,6.39,2.36,2.36,-2.36,-2.41,-2.45,4.03,4.04,4.04
99.26,6.34,6.35,2.38,2.38,-2.39,-2.43,-2.50,3.96,3.96,3.97
100.25,6.30,6.30,2.41,2.41,-2.41,-2.45,-2.55,3.89,3.89,3.89
101.25,6.26,6.26,2.44,2.44,-2.44,-2.47,-2.59,3.82,3.82,3.82
102.27,6.21,6.22,2.47,2.47,-2.47,-2.50,-2.64,3.75,3.75,3.75
103.29,6.17,6.17,2.50,2.50,-2.50,-2.52,-2.69,3.68,3.68,3.68
104.32,6.12,6.13,2.52,2.52,-2.52,-2.54,-2.74,3.60,3.60,3.60
105.37,6.08,6.08,2.56,2.55,-2.55,-2.56,-2.79,3.53,3.53,3.53
106.42,6.03,6.04,2.58,2.58,-2.58,-2.58,-2.84,3.45,3.46,3.46
107.48,5.99,5.99,2.61,2.61,-2.61,-2.60,-2.89,3.39,3.38,3.38
108.56,5.94,5.94,2.63,2.63,-2.64,-2.61,-2.93,3.31,3.31,3.31
109.64,5.89,5.90,2.66,2.66,-2.66,-2.63,-2.98,3.23,3.24,3.24
110.74,5.85,5.85,2.69,2.69,-2.69,-2.65,-3.02,3.17,3.17,3.16
111.85,5.80,5.80,2.71,2.71,-2.71,-2.67,-3.06,3.09,3.09,3.09
112.97,5.75,5.76,2.73,2.74,-2.73,-2.68,-3.10,3.02,3.02,3.02
114.10,5.70,5.70,2.76,2.76,-2.76,-2.70,-3.14,2.95,2.95,2.95
115.24,5.65,5.65,2.78,2.78,-2.78,-2.71,-3.18,2.88,2.88,2.88
116.39,5.60,5.60,2.80,2.80,-2.80,-2.73,-3.21,2.81,2.81,2.81
117.55,5.55,5.55,2.82,2.82,-2.82,-2.74,-3.24,2.74,2.74,2.74
118.73,5.50,5.50,2.84,2.84,-2.84,-2.75,-3.27,2.67,2.67,2.67
119.92,5.45,5.45,2.86,2.86,-2.86,-2.77,-3.29,2.60,2.60,2.60
121.12,5.40,5.40,2.88,2.88,-2.88,-2.78,-3.31,2.53,2.53,2.53
122.33,5.35,5.35,2.89,2.89,-2.90,-2.79,-3.32,2.46,2.46,2.46
123.55,5.30,5.30,2.91,2.91,-2.91,-2.80,-3.33,2.39,2.39,2.39
124.79,5.25,5.25,2.93,2.93,-2.93,-2.81,-3.33,2.33,2.33,2.33
126.03,5.20,5.20,2.95,2.95,-2.94,-2.82,-3.34,2.26,2.26,2.26
127.29,5.15,5.16,2.96,2.96,-2.96,-2.83,-3.33,2.19,2.20,2.19
128.57,5.10,5.10,2.98,2.97,-2.97,-2.84,-3.33,2.13,2.13,2.13
129.85,5.05,5.05,2.99,2.99,-2.99,-2.84,-3.31,2.07,2.07,2.07
131.15,4.99,5.00,2.99,3.00,-3.00,-2.85,-3.30,2.00,2.00,2.00
132.46,4.94,4.94,3.00,3.00,-3.01,-2.86,-3.28,1.94,1.94,1.94
133.79,4.89,4.89,3.02,3.02,-3.02,-2.86,-3.26,1.88,1.88,1.88
135.12,4.84,4.84,3.03,3.03,-3.02,-2.87,-3.23,1.82,1.82,1.82
136.48,4.79,4.79,3.04,3.03,-3.03,-2.87,-3.21,1.76,1.76,1.76
137.84,4.73,4.74,3.03,3.04,-3.04,-2.87,-3.17,1.70,1.70,1.70
139.22,4.68,4.68,3.04,3.04,-3.04,-2.88,-3.14,1.65,1.64,1.64
140.61,4.62,4.63,3.04,3.04,-3.04,-2.88,-3.10,1.58,1.58,1.59
142.02,4.57,4.57,3.04,3.04,-3.04,-2.88,-3.07,1.53,1.53,1.53
143.44,4.51,4.52,3.04,3.04,-3.04,-2.88,-3.03,1.47,1.47,1.48
144.87,4.46,4.46,3.04,3.04,-3.04,-2.88,-2.99,1.42,1.42,1.42
146.32,4.41,4.41,3.04,3.04,-3.04,-2.88,-2.95,1.37,1.37,1.37
147.78,4.35,4.36,3.04,3.04,-3.04,-2.88,-2.90,1.32,1.32,1.32
149.26,4.30,4.30,3.04,3.03,-3.03,-2.87,-2.86,1.27,1.27,1.27
150.75,4.24,4.25,3.03,3.03,-3.03,-2.87,-2.82,1.21,1.22,1.22
152.26,4.19,4.19,3.02,3.02,-3.02,-2.87,-2.78,1.17,1.17,1.17
153.78,4.14,4.14,3.02,3.02,-3.02,-2.86,-2.74,1.13,1.12,1.12
155.32,4.08,4.09,3.01,3.01,-3.01,-2.85,-2.70,1.07,1.08,1.08
156.88,4.03,4.03,3.00,3.00,-3.00,-2.85,-2.66,1.03,1.03,1.03
158.44,3.97,3.97,2.99,2.99,-2.99,-2.84,-2.62,0.98,0.98,0.99
160.03,3.91,3.92,2.97,2.98,-2.98,-2.83,-2.58,0.93,0.94,0.94
161.63,3.86,3.86,2.97,2.97,-2.97,-2.82,-2.54,0.90,0.89,0.89
163.24,3.80,3.80,2.96,2.96,-2.95,-2.81,-2.51,0.85,0.85,0.85
164.88,3.74,3.75,2.94,2.94,-2.94,-2.80,-2.47,0.81,0.81,0.81
166.53,3.69,3.69,2.93,2.92,-2.92,-2.79,-2.44,0.77,0.77,0.77
168.19,3.63,3.63,2.90,2.90,-2.90,-2.78,-2.41,0.73,0.73,0.73
169.87,3.57,3.58,2.88,2.89,-2.89,-2.77,-2.38,0.69,0.69,0.69
171.57,3.52,3.52,2.87,2.86,-2.86,-2.75,-2.35,0.66,0.66,0.66
173.29,3.46,3.46,2.84,2.84,-2.84,-2.74,-2.33,0.62,0.62,0.62
175.02,3.40,3.41,2.82,2.82,-2.82,-2.72,-2.31,0.59,0.59,0.59
176.77,3.34,3.34,2.79,2.79,-2.79,-2.71,-2.28,0.55,0.55,0.55
178.54,3.28,3.28,2.76,2.76,-2.76,-2.69,-2.26,0.52,0.52,0.52
180.32,3.22,3.22,2.74,2.74,-2.73,-2.67,-2.24,0.49,0.49,0.49
182.13,3.16,3.16,2.71,2.71,-2.70,-2.66,-2.23,0.46,0.46,0.46
183.95,3.10,3.10,2.68,2.68,-2.67,-2.64,-2.21,0.43,0.43,0.43
185.79,3.04,3.04,2.65,2.64,-2.64,-2.62,-2.20,0.40,0.40,0.40
187.65,2.98,2.98,2.61,2.61,-2.62,-2.60,-2.19,0.37,0.36,0.37
189.52,2.92,2.93,2.58,2.59,-2.60,-2.57,-2.18,0.33,0.33,0.34
191.42,2.88,2.88,2.57,2.57,-2.58,-2.55,-2.17,0.31,0.31,0.32
193.33,2.84,2.84,2.55,2.55,-2.56,-2.53,-2.16,0.29,0.28,0.29
195.27,2.80,2.81,2.54,2.54,-2.54,-2.50,-2.16,0.26,0.27,0.27
197.22,2.77,2.77,2.53,2.53,-2.53,-2.48,-2.16,0.25,0.25,0.24
199.19,2.73,2.73,2.52,2.52,-2.51,-2.45,-2.15,0.22,0.22,0.22
201.18,2.69,2.69,2.50,2.50,-2.49,-2.43,-2.15,0.20,0.20,0.19
203.19,2.64,2.65,2.47,2.48,-2.47,-2.40,-2.15,0.17,0.18,0.17
205.23,2.60,2.60,2.45,2.45,-2.45,-2.37,-2.15,0.16,0.15,0.15
207.28,2.54,2.55,2.41,2.42,-2.42,-2.34,-2.15,0.13,0.13,0.13
209.35,2.49,2.49,2.38,2.38,-2.38,-2.32,-2.15,0.11,0.11,0.11
211.44,2.43,2.43,2.34,2.34,-2.34,-2.29,-2.15,0.09,0.09,0.09
213.56,2.37,2.38,2.30,2.30,-2.30,-2.25,-2.15,0.07,0.07,0.07
215.69,2.31,2.31,2.26,2.26,-2.26,-2.22,-2.15,0.05,0.05,0.05
217.85,2.25,2.25,2.22,2.22,-2.22,-2.19,-2.15,0.03,0.03,0.04
220.03,2.19,2.19,2.18,2.17,-2.18,-2.16,-2.16,0.02,0.02,0.02
222.23,2.13,2.13,2.13,2.13,-2.13,-2.12,-2.15,0.00,0.00,0.00
224.45,2.07,2.08,2.09,2.09,-2.09,-2.09,-2.15,-0.02,-0.01,-0.01
226.70,2.02,2.02,2.05,2.05,-2.05,-2.06,-2.15,-0.03,-0.03,-0.03
228.96,1.96,1.96,2.01,2.01,-2.01,-2.02,-2.15,-0.05,-0.05,-0.04
231.25,1.90,1.91,1.96,1.97,-1.97,-1.98,-2.14,-0.07,-0.06,-0.06
233.57,1.85,1.85,1.93,1.93,-1.93,-1.95,-2.13,-0.08,-0.08,-0.07
235.90,1.80,1.80,1.90,1.89,-1.89,-1.91,-2.12,-0.09,-0.09,-0.10
238.26,1.74,1.75,1.85,1.86,-1.85,-1.87,-2.11,-0.11,-0.11,-0.11
240.64,1.69,1.69,1.82,1.82,-1.82,-1.83,-2.10,-0.12,-0.12,-0.12
243.05,1.64,1.64,1.78,1.78,-1.78,-1.79,-2.08,-0.13,-0.13,-0.13
245.48,1.59,1.59,1.74,1.74,-1.74,-1.75,-2.06,-0.15,-0.15,-0.15
247.93,1.54,1.54,1.70,1.70,-1.70,-1.71,-2.04,-0.16,-0.16,-0.16
250.41,1.49,1.49,1.66,1.66,-1.66,-1.67,-2.01,-0.17,-0.17,-0.17
252.92,1.44,1.44,1.62,1.62,-1.62,-1.63,-1.98,-0.18,-0.18,-0.18
255.45,1.39,1.39,1.58,1.58,-1.58,-1.59,-1.95,-0.19,-0.19,-0.19
258.00,1.34,1.34,1.54,1.54,-1.54,-1.55,-1.92,-0.20,-0.20,-0.20
260.58,1.29,1.29,1.50,1.50,-1.50,-1.50,-1.88,-0.21,-0.21,-0.21
263.19,1.24,1.24,1.46,1.46,-1.46,-1.46,-1.84,-0.22,-0.22,-0.22
265.82,1.19,1.19,1.42,1.42,-1.42,-1.42,-1.80,-0.23,-0.23,-0.23
268.48,1.14,1.14,1.38,1.38,-1.38,-1.37,-1.76,-0.24,-0.24,-0.23
271.16,1.09,1.09,1.34,1.34,-1.34,-1.33,-1.71,-0.24,-0.24,-0.24
273.87,1.04,1.04,1.29,1.30,-1.30,-1.28,-1.66,-0.25,-0.25,-0.25
276.61,0.99,0.99,1.25,1.25,-1.25,-1.24,-1.61,-0.26,-0.26,-0.26
279.38,0.94,0.94,1.21,1.21,-1.21,-1.19,-1.56,-0.26,-0.26,-0.27
282.17,0.89,0.89,1.17,1.16,-1.16,-1.14,-1.50,-0.27,-0.27,-0.27
284.99,0.84,0.84,1.11,1.11,-1.11,-1.10,-1.44,-0.27,-0.27,-0.27
287.84,0.79,0.79,1.06,1.07,-1.07,-1.05,-1.39,-0.27,-0.27,-0.27
290.72,0.74,0.74,1.02,1.02,-1.02,-1.00,-1.33,-0.27,-0.27,-0.27
293.63,0.69,0.69,0.97,0.97,-0.97,-0.96,-1.27,-0.27,-0.27,-0.28
296.57,0.64,0.64,0.92,0.92,-0.92,-0.91,-1.20,-0.27,-0.27,-0.27
299.53,0.59,0.59,0.86,0.87,-0.87,-0.86,-1.14,-0.27,-0.27,-0.27
302.53,0.54,0.54,0.82,0.82,-0.82,-0.81,-1.08,-0.27,-0.27,-0.28
305.55,0.49,0.49,0.77,0.77,-0.77,-0.76,-1.01,-0.27,-0.27,-0.27
308.61,0.44,0.44,0.72,0.72,-0.72,-0.71,-0.95,-0.27,-0.27,-0.28
311.69,0.39,0.39,0.67,0.67,-0.67,-0.67,-0.88,-0.27,-0.27,-0.27
314.81,0.34,0.34,0.62,0.62,-0.62,-0.62,-0.82,-0.27,-0.27,-0.28
317.96,0.29,0.29,0.57,0.57,-0.57,-0.57,-0.75,-0.27,-0.27,-0.27
321.14,0.24,0.24,0.52,0.52,-0.52,-0.52,-0.69,-0.27,-0.27,-0.28
324.35,0.19,0.19,0.46,0.46,-0.47,-0.47,-0.62,-0.27,-0.27,-0.27
327.59,0.14,0.15,0.41,0.41,-0.42,-0.42,-0.56,-0.27,-0.27,-0.26
330.87,0.10,0.10,0.37,0.36,-0.37,-0.37,-0.49,-0.26,-0.27,-0.27
334.18,0.05,0.05,0.32,0.32,-0.32,-0.32,-0.42,-0.26,-0.26,-0.26
337.52,0.00,0.01,0.27,0.27,-0.27,-0.27,-0.36,-0.26,-0.26,-0.27
340.90,-0.04,-0.04,0.22,0.22,-0.22,-0.22,-0.29,-0.25,-0.26,-0.26
344.30,-0.09,-0.08,0.17,0.17,-0.17,-0.17,-0.22,-0.25,-0.25,-0.25
347.75,-0.13,-0.13,0.12,0.12,-0.12,-0.12,-0.16,-0.25,-0.25,-0.25
351.23,-0.18,-0.17,0.07,0.07,-0.07,-0.07,-0.09,-0.25,-0.24,-0.25
354.74,-0.22,-0.22,0.02,0.02,-0.02,-0.02,-0.02,-0.24,-0.24,-0.23
358.28,-0.27,-0.26,-0.03,-0.03,0.03,0.03,0.04,-0.24,-0.23,-0.23
361.87,-0.31,-0.31,-0.08,-0.08,0.08,0.08,0.11,-0.23,-0.23,-0.23
365.49,-0.35,-0.35,-0.13,-0.13,0.13,0.13,0.17,-0.22,-0.22,-0.22
369.14,-0.40,-0.39,-0.17,-0.18,0.17,0.18,0.24,-0.22,-0.22,-0.22
372.83,-0.44,-0.44,-0.23,-0.22,0.22,0.22,0.31,-0.21,-0.21,-0.21
376.56,-0.48,-0.48,-0.27,-0.27,0.27,0.27,0.37,-0.21,-0.21,-0.21
380.33,-0.52,-0.52,-0.32,-0.31,0.31,0.32,0.44,-0.20,-0.20,-0.20
384.13,-0.56,-0.56,-0.35,-0.36,0.36,0.37,0.51,-0.19,-0.19,-0.20
387.97,-0.60,-0.60,-0.40,-0.40,0.41,0.42,0.57,-0.19,-0.19,-0.19
391.85,-0.64,-0.64,-0.46,-0.45,0.45,0.47,0.64,-0.18,-0.19,-0.18
395.77,-0.68,-0.68,-0.50,-0.50,0.50,0.51,0.70,-0.18,-0.18,-0.18
399.73,-0.72,-0.71,-0.54,-0.54,0.54,0.56,0.77,-0.18,-0.17,-0.17
403.72,-0.75,-0.75,-0.58,-0.58,0.58,0.61,0.83,-0.16,-0.17,-0.16
407.76,-0.79,-0.79,-0.62,-0.63,0.63,0.65,0.90,-0.16,-0.16,-0.16
411.84,-0.83,-0.82,-0.67,-0.67,0.67,0.70,0.96,-0.16,-0.15,-0.16
415.96,-0.87,-0.86,-0.72,-0.71,0.71,0.75,1.02,-0.15,-0.15,-0.15
420.12,-0.90,-0.90,-0.75,-0.75,0.75,0.79,1.08,-0.14,-0.15,-0.15
424.32,-0.94,-0.93,-0.79,-0.79,0.79,0.84,1.14,-0.14,-0.14,-0.14
428.56,-0.97,-0.97,-0.83,-0.83,0.83,0.88,1.20,-0.13,-0.13,-0.13
432.85,-1.01,-1.00,-0.88,-0.87,0.88,0.92,1.26,-0.13,-0.13,-0.12
437.18,-1.04,-1.04,-0.91,-0.91,0.92,0.97,1.32,-0.12,-0.12,-0.13
441.55,-1.07,-1.07,-0.95,-0.95,0.96,1.01,1.37,-0.11,-0.11,-0.12
445.96,-1.11,-1.10,-1.00,-1.00,1.00,1.05,1.42,-0.11,-0.10,-0.11
450.42,-1.14,-1.14,-1.05,-1.04,1.04,1.10,1.47,-0.10,-0.10,-0.09
454.93,-1.17,-1.17,-1.08,-1.08,1.08,1.14,1.52,-0.09,-0.09,-0.08
459.48,-1.20,-1.20,-1.12,-1.12,1.12,1.18,1.57,-0.08,-0.08,-0.07
464.07,-1.23,-1.23,-1.15,-1.16,1.16,1.22,1.61,-0.07,-0.07,-0.07
468.71,-1.26,-1.26,-1.19,-1.19,1.19,1.26,1.65,-0.06,-0.06,-0.06
473.40,-1.29,-1.29,-1.23,-1.23,1.23,1.30,1.69,-0.05,-0.05,-0.06
478.13,-1.32,-1.32,-1.27,-1.27,1.27,1.33,1.72,-0.05,-0.05,-0.05
482.91,-1.35,-1.34,-1.31,-1.30,1.30,1.37,1.75,-0.04,-0.04,-0.04
487.74,-1.37,-1.37,-1.34,-1.34,1.34,1.41,1.77,-0.02,-0.03,-0.03
492.62,-1.40,-1.40,-1.38,-1.38,1.38,1.45,1.80,-0.02,-0.02,-0.02
497.55,-1.43,-1.42,-1.42,-1.41,1.42,1.48,1.82,-0.01,-0.01,-0.01
502.52,-1.45,-1.45,-1.44,-1.45,1.45,1.52,1.83,0.01,0.00,-0.00
507.55,-1.48,-1.47,-1.49,-1.49,1.49,1.55,1.84,0.01,0.01,0.02
512.62,-1.50,-1.50,-1.52,-1.52,1.52,1.58,1.85,0.03,0.03,0.03
517.75,-1.52,-1.52,-1.55,-1.56,1.55,1.62,1.86,0.04,0.03,0.04
