frequency,raw,smoothed,error,error_smoothed,equalization,parametric_eq,fixed_band_eq,equalized_raw,equalized_smoothed,target
20.00,-8.75,-8.75,-19.71,-19.71,6.00,6.95,3.13,-2.75,-2.75,10.97
20.20,-8.57,-8.57,-19.53,-19.53,6.00,6.94,3.22,-2.57,-2.57,10.97
20.40,-8.38,-8.39,-19.35,-19.35,6.00,6.93,3.30,-2.38,-2.39,10.96
20.61,-8.21,-8.21,-19.17,-19.17,6.00,6.92,3.40,-2.21,-2.21,10.96
20.81,-8.02,-8.03,-18.99,-18.99,6.00,6.90,3.49,-2.02,-2.03,10.96
21.02,-7.86,-7.85,-18.82,-18.82,6.00,6.89,3.59,-1.86,-1.85,10.96
21.23,-7.68,-7.68,-18.64,-18.64,6.00,6.88,3.69,-1.68,-1.68,10.96
21.44,-7.51,-7.51,-18.48,-18.47,6.00,6.86,3.80,-1.51,-1.51,10.96
21.66,-7.35,-7.34,-18.31,-18.31,6.00,6.85,3.91,-1.35,-1.34,10.96
21.87,-7.17,-7.18,-18.13,-18.14,6.00,6.83,4.02,-1.17,-1.18,10.96
22.09,-7.01,-7.01,-17.97,-17.97,6.00,6.82,4.13,-1.01,-1.01,10.96
22.31,-6.84,-6.84,-17.80,-17.80,6.00,6.80,4.25,-0.84,-0.84,10.96
22.54,-6.68,-6.68,-17.64,-17.63,6.00,6.79,4.36,-0.68,-0.68,10.96
22.76,-6.50,-6.51,-17.46,-17.46,6.00,6.77,4.49,-0.50,-0.51,10.96
22.99,-6.34,-6.34,-17.29,-17.29,6.00,6.76,4.61,-0.34,-0.34,10.96
23.22,-6.17,-6.16,-17.12,-17.12,6.00,6.74,4.74,-0.17,-0.16,10.95
23.45,-5.99,-5.99,-16.94,-16.94,6.00,6.72,4.87,0.01,0.01,10.95
23.69,-5.82,-5.81,-16.77,-16.77,6.00,6.71,5.01,0.18,0.19,10.95
23.92,-5.63,-5.64,-16.59,-16.59,6.00,6.69,5.15,0.37,0.36,10.95
24.16,-5.46,-5.46,-16.41,-16.41,6.00,6.67,5.29,0.54,0.54,10.95
24.40,-5.28,-5.28,-16.23,-16.23,6.00,6.65,5.43,0.72,0.72,10.95
24.65,-5.11,-5.11,-16.06,-16.06,6.00,6.64,5.57,0.89,0.89,10.95
24.89,-4.93,-4.93,-15.88,-15.88,6.00,6.62,5.72,1.07,1.07,10.95
25.14,-4.75,-4.75,-15.70,-15.70,6.00,6.60,5.87,1.25,1.25,10.94
25.39,-4.57,-4.58,-15.52,-15.52,6.00,6.58,6.02,1.43,1.42,10.94
25.65,-4.41,-4.40,-15.35,-15.34,6.00,6.56,6.17,1.59,1.60,10.94
25.91,-4.23,-4.23,-15.17,-15.17,6.00,6.54,6.32,1.77,1.77,10.94
26.16,-4.05,-4.05,-14.99,-14.99,6.00,6.52,6.47,1.95,1.95,10.94
26.43,-3.88,-3.88,-14.82,-14.81,6.00,6.50,6.62,2.12,2.12,10.94
26.69,-3.70,-3.70,-14.63,-14.64,6.00,6.48,6.77,2.30,2.30,10.94
26.96,-3.53,-3.53,-14.46,-14.46,6.00,6.46,6.92,2.47,2.47,10.93
27.23,-3.35,-3.35,-14.28,-14.28,6.00,6.44,7.07,2.65,2.65,10.93
27.50,-3.17,-3.17,-14.10,-14.10,6.00,6.42,7.21,2.83,2.83,10.93
27.77,-2.98,-2.99,-13.91,-13.92,6.00,6.39,7.34,3.02,3.01,10.93
28.05,-2.82,-2.81,-13.74,-13.74,6.00,6.37,7.48,3.18,3.19,10.93
28.33,-2.63,-2.64,-13.56,-13.56,6.00,6.35,7.60,3.37,3.36,10.92
28.62,-2.46,-2.46,-13.38,-13.38,6.00,6.33,7.72,3.54,3.54,10.92
28.90,-2.29,-2.28,-13.20,-13.20,6.00,6.30,7.82,3.71,3.72,10.92
29.19,-2.11,-2.11,-13.02,-13.02,6.00,6.28,7.92,3.89,3.89,10.92
29.48,-1.92,-1.93,-12.84,-12.84,6.00,6.26,8.00,4.08,4.07,10.91
29.78,-1.75,-1.75,-12.66,-12.66,6.00,6.23,8.08,4.25,4.25,10.91
30.08,-1.57,-1.57,-12.48,-12.48,6.00,6.21,8.13,4.43,4.43,10.91
30.38,-1.40,-1.40,-12.31,-12.30,6.00,6.19,8.18,4.60,4.60,10.91
30.68,-1.22,-1.22,-12.12,-12.12,6.00,6.16,8.20,4.78,4.78,10.90
30.99,-1.04,-1.04,-11.94,-11.94,6.00,6.14,8.22,4.96,4.96,10.90
31.30,-0.86,-0.86,-11.76,-11.76,6.00,6.11,8.22,5.14,5.14,10.90
31.61,-0.68,-0.68,-11.57,-11.58,6.00,6.09,8.20,5.32,5.32,10.89
31.93,-0.51,-0.50,-11.40,-11.40,6.00,6.07,8.16,5.49,5.50,10.89
32.24,-0.32,-0.32,-11.21,-11.21,6.00,6.04,8.12,5.68,5.68,10.89
32.57,-0.15,-0.15,-11.03,-11.03,6.00,6.02,8.05,5.85,5.85,10.88
32.89,0.04,0.03,-10.85,-10.85,6.00,6.00,7.97,6.04,6.03,10.88
33.22,0.20,0.21,-10.67,-10.67,6.00,5.98,7.88,6.20,6.21,10.88
33.55,0.39,0.39,-10.49,-10.49,6.00,5.96,7.78,6.39,6.39,10.87
33.89,0.56,0.56,-10.31,-10.31,6.00,5.94,7.66,6.56,6.56,10.87
34.23,0.74,0.74,-10.12,-10.12,6.00,5.92,7.54,6.74,6.74,10.87
34.57,0.92,0.92,-9.94,-9.94,6.00,5.90,7.40,6.92,6.92,10.86
34.92,1.09,1.10,-9.76,-9.76,6.00,5.88,7.26,7.09,7.10,10.86
35.27,1.27,1.27,-9.58,-9.58,6.00,5.87,7.11,7.27,7.27,10.85
35.62,1.44,1.45,-9.40,-9.40,6.00,5.86,6.96,7.44,7.45,10.85
35.97,1.63,1.62,-9.22,-9.22,6.00,5.85,6.80,7.63,7.62,10.84
36.33,1.80,1.80,-9.04,-9.04,6.00,5.84,6.63,7.80,7.80,10.84
36.70,1.97,1.97,-8.86,-8.86,6.00,5.84,6.47,7.97,7.97,10.83
37.06,2.15,2.14,-8.68,-8.68,6.00,5.84,6.30,8.15,8.14,10.83
37.43,2.32,2.32,-8.50,-8.50,6.00,5.84,6.13,8.32,8.32,10.82
37.81,2.48,2.49,-8.33,-8.33,6.00,5.85,5.96,8.48,8.49,10.81
38.19,2.66,2.66,-8.14,-8.15,6.00,5.86,5.79,8.66,8.66,10.81
38.57,2.83,2.83,-7.97,-7.97,6.00,5.88,5.62,8.83,8.83,10.80
38.95,3.01,3.01,-7.79,-7.79,6.00,5.89,5.45,9.01,9.01,10.79
39.34,3.18,3.17,-7.61,-7.61,6.00,5.91,5.28,9.18,9.17,10.79
39.74,3.34,3.34,-7.44,-7.43,6.00,5.92,5.12,9.34,9.34,10.78
40.14,3.51,3.51,-7.26,-7.26,6.00,5.93,4.95,9.51,9.51,10.77
40.54,3.68,3.68,-7.08,-7.08,6.01,5.93,4.79,9.69,9.69,10.76
40.94,3.84,3.85,-6.91,-6.91,6.02,5.92,4.63,9.87,9.87,10.76
41.35,4.01,4.01,-6.73,-6.73,6.03,5.89,4.47,10.05,10.05,10.75
41.76,4.19,4.18,-6.55,-6.56,6.03,5.85,4.32,10.21,10.21,10.74
42.18,4.34,4.35,-6.38,-6.38,6.01,5.78,4.16,10.35,10.36,10.73
42.60,4.52,4.51,-6.20,-6.21,5.96,5.70,4.01,10.48,10.48,10.72
43.03,4.67,4.67,-6.04,-6.04,5.90,5.59,3.87,10.57,10.57,10.71
43.46,4.83,4.84,-5.87,-5.86,5.80,5.48,3.72,10.64,10.64,10.70
43.90,5.00,5.00,-5.69,-5.69,5.68,5.35,3.58,10.69,10.68,10.69
44.33,5.17,5.16,-5.51,-5.52,5.54,5.21,3.44,10.71,10.70,10.68
44.78,5.31,5.32,-5.35,-5.35,5.38,5.07,3.30,10.70,10.70,10.67
45.23,5.47,5.47,-5.18,-5.18,5.21,4.93,3.16,10.68,10.68,10.66
45.68,5.63,5.63,-5.01,-5.01,5.03,4.79,3.03,10.66,10.66,10.64
46.13,5.79,5.79,-4.85,-4.84,4.85,4.65,2.90,10.63,10.63,10.63
46.60,5.94,5.94,-4.68,-4.68,4.68,4.51,2.77,10.62,10.62,10.62
47.06,6.09,6.09,-4.51,-4.51,4.51,4.38,2.65,10.61,10.61,10.61
47.53,6.24,6.24,-4.35,-4.35,4.35,4.25,2.52,10.59,10.59,10.59
48.01,6.39,6.39,-4.18,-4.18,4.18,4.12,2.40,10.58,10.58,10.58
48.49,6.54,6.54,-4.02,-4.02,4.02,4.00,2.28,10.56,10.56,10.56
48.97,6.69,6.69,-3.85,-3.86,3.86,3.88,2.17,10.55,10.55,10.55
49.46,6.83,6.84,-3.70,-3.69,3.69,3.76,2.05,10.53,10.53,10.53
49.96,6.98,6.98,-3.53,-3.53,3.53,3.64,1.94,10.52,10.52,10.51
50.46,7.12,7.12,-3.38,-3.37,3.37,3.52,1.83,10.50,10.50,10.50
50.96,7.26,7.26,-3.22,-3.22,3.21,3.40,1.72,10.48,10.48,10.48
51.47,7.40,7.40,-3.06,-3.06,3.06,3.29,1.62,10.46,10.46,10.46
51.99,7.54,7.54,-2.90,-2.90,2.90,3.17,1.51,10.44,10.44,10.44
52.51,7.68,7.68,-2.74,-2.74,2.74,3.06,1.41,10.43,10.42,10.42
53.03,7.81,7.82,-2.59,-2.59,2.59,2.94,1.31,10.40,10.41,10.40
53.56,7.95,7.95,-2.43,-2.43,2.44,2.83,1.21,10.39,10.39,10.38
54.10,8.08,8.08,-2.28,-2.28,2.28,2.71,1.12,10.37,10.37,10.36
54.64,8.20,8.21,-2.14,-2.13,2.13,2.60,1.03,10.34,10.34,10.34
55.18,8.33,8.33,-1.98,-1.99,1.99,2.48,0.94,10.32,10.32,10.32
55.74,8.45,8.45,-1.84,-1.84,1.84,2.36,0.85,10.29,10.29,10.29
56.29,8.57,8.57,-1.70,-1.70,1.69,2.25,0.76,10.27,10.27,10.27
56.86,8.69,8.69,-1.55,-1.55,1.55,2.13,0.68,10.24,10.24,10.25
57.42,8.81,8.81,-1.41,-1.41,1.41,2.01,0.60,10.22,10.22,10.22
58.00,8.93,8.93,-1.26,-1.26,1.26,1.89,0.52,10.20,10.19,10.19
58.58,9.04,9.04,-1.12,-1.12,1.12,1.76,0.44,10.17,10.17,10.17
59.16,9.15,9.16,-0.98,-0.98,0.98,1.64,0.37,10.14,10.14,10.14
59.76,9.26,9.26,-0.85,-0.85,0.84,1.52,0.30,10.11,10.11,10.11
60.35,9.37,9.37,-0.71,-0.71,0.71,1.39,0.23,10.08,10.08,10.08
60.96,9.47,9.47,-0.58,-0.57,0.58,1.26,0.16,10.05,10.05,10.05
61.57,9.57,9.58,-0.44,-0.44,0.44,1.14,0.10,10.02,10.02,10.02
62.18,9.67,9.67,-0.31,-0.31,0.31,1.01,0.04,9.99,9.99,9.99
62.80,9.76,9.76,-0.19,-0.19,0.19,0.88,-0.02,9.95,9.95,9.95
63.43,9.85,9.85,-0.06,-0.06,0.06,0.75,-0.08,9.91,9.91,9.92
64.07,9.94,9.94,0.06,0.06,-0.07,0.62,-0.13,9.88,9.88,9.88
64.71,10.03,10.03,0.19,0.19,-0.19,0.48,-0.18,9.84,9.85,9.85
65.35,10.12,10.12,0.31,0.31,-0.31,0.35,-0.23,9.81,9.81,9.81
66.01,10.20,10.20,0.43,0.43,-0.43,0.22,-0.28,9.77,9.78,9.77
66.67,10.28,10.28,0.55,0.55,-0.55,0.08,-0.32,9.74,9.73,9.73
67.33,10.35,10.35,0.66,0.66,-0.66,-0.05,-0.37,9.69,9.69,9.69
68.01,10.42,10.43,0.77,0.77,-0.78,-0.19,-0.41,9.65,9.65,9.65
68.69,10.49,10.49,0.88,0.89,-0.89,-0.32,-0.45,9.61,9.61,9.61
69.37,10.56,10.56,1.00,0.99,-1.00,-0.45,-0.49,9.57,9.57,9.57
70.07,10.62,10.63,1.10,1.10,-1.10,-0.59,-0.53,9.52,9.52,9.52
70.77,10.68,10.69,1.21,1.21,-1.21,-0.72,-0.56,9.48,9.48,9.48
71.48,10.74,10.74,1.31,1.31,-1.31,-0.86,-0.60,9.43,9.43,9.43
72.19,10.79,10.80,1.41,1.41,-1.41,-0.99,-0.64,9.38,9.38,9.38
72.91,10.84,10.85,1.51,1.51,-1.51,-1.12,-0.67,9.33,9.34,9.34
73.64,10.89,10.89,1.61,1.60,-1.61,-1.25,-0.71,9.29,9.29,9.29
74.38,10.93,10.94,1.70,1.70,-1.70,-1.38,-0.74,9.23,9.24,9.24
75.12,10.97,10.98,1.79,1.79,-1.79,-1.50,-0.77,9.18,9.19,9.18
75.87,11.01,11.01,1.88,1.88,-1.88,-1.63,-0.81,9.13,9.13,9.13
76.63,11.04,11.04,1.96,1.96,-1.97,-1.75,-0.84,9.08,9.08,9.08
77.40,11.07,11.07,2.05,2.05,-2.05,-1.87,-0.88,9.02,9.02,9.02
78.17,11.09,11.10,2.12,2.13,-2.13,-1.99,-0.91,8.96,8.97,8.97
78.95,11.12,11.12,2.21,2.21,-2.21,-2.10,-0.95,8.92,8.91,8.91
79.74,11.14,11.14,2.29,2.28,-2.28,-2.21,-0.98,8.86,8.86,8.86
80.54,11.15,11.16,2.36,2.36,-2.36,-2.32,-1.02,8.80,8.80,8.80
81.35,11.16,11.16,2.43,2.43,-2.43,-2.42,-1.06,8.74,8.74,8.74
82.16,11.17,11.17,2.50,2.49,-2.50,-2.52,-1.10,8.68,8.68,8.68
82.98,11.17,11.18,2.56,2.56,-2.56,-2.61,-1.14,8.61,8.62,8.62
83.81,11.18,11.18,2.63,2.62,-2.62,-2.70,-1.18,8.56,8.55,8.56
84.65,11.17,11.18,2.68,2.68,-2.69,-2.79,-1.22,8.49,8.49,8.49
85.50,11.17,11.17,2.74,2.74,-2.74,-2.87,-1.26,8.43,8.43,8.43
86.35,11.16,11.16,2.80,2.80,-2.80,-2.95,-1.31,8.37,8.37,8.36
87.22,11.15,11.15,2.85,2.85,-2.85,-3.02,-1.35,8.30,8.30,8.30
88.09,11.13,11.13,2.90,2.90,-2.90,-3.09,-1.40,8.23,8.23,8.23
88.97,11.11,11.11,2.95,2.95,-2.95,-3.15,-1.45,8.17,8.17,8.17
89.86,11.08,11.09,2.98,2.99,-2.99,-3.20,-1.50,8.10,8.10,8.10
90.76,11.06,11.06,3.03,3.03,-3.03,-3.25,-1.55,8.04,8.03,8.03
91.66,11.02,11.03,3.06,3.06,-3.07,-3.30,-1.60,7.96,7.96,7.96
92.58,10.99,10.99,3.10,3.10,-3.10,-3.34,-1.65,7.89,7.89,7.89
93.51,10.95,10.95,3.13,3.13,-3.13,-3.38,-1.71,7.82,7.82,7.82
94.44,10.91,10.92,3.16,3.16,-3.16,-3.41,-1.76,7.75,7.75,7.75
95.39,10.87,10.87,3.19,3.19,-3.19,-3.43,-1.82,7.69,7.68,7.68
96.34,10.82,10.82,3.21,3.21,-3.21,-3.45,-1.88,7.61,7.61,7.61
97.30,10.77,10.78,3.23,3.24,-3.24,-3.47,-1.94,7.54,7.54,7.54
98.28,10.72,10.72,3.26,3.26,-3.26,-3.48,-1.99,7.47,7.47,7.47
99.26,10.67,10.67,3.28,3.28,-3.28,-3.50,-2.05,7.40,7.40,7.40
100.25,10.61,10.62,3.29,3.29,-3.29,-3.50,-2.12,7.32,7.32,7.32
101.25,10.55,10.56,3.30,3.30,-3.30,-3.50,-2.18,7.25,7.25,7.25
102.27,10.49,10.49,3.32,3.31,-3.31,-3.50,-2.24,7.18,7.18,7.18
103.29,10.42,10.42,3.32,3.32,-3.32,-3.50,-2.30,7.10,7.10,7.10
104.32,10.35,10.36,3.32,3.32,-3.32,-3.49,-2.36,7.03,7.03,7.03
105.37,10.28,10.28,3.33,3.33,-3.33,-3.48,-2.42,6.96,6.96,6.96
106.42,10.21,10.21,3.33,3.33,-3.33,-3.46,-2.48,6.89,6.89,6.89
107.48,10.13,10.13,3.32,3.32,-3.32,-3.45,-2.54,6.81,6.81,6.81
108.56,10.05,10.06,3.31,3.32,-3.32,-3.43,-2.60,6.74,6.74,6.74
109.64,9.97,9.97,3.31,3.31,-3.31,-3.41,-2.65,6.67,6.67,6.67
110.74,9.89,9.89,3.30,3.30,-3.30,-3.39,-2.71,6.60,6.60,6.59
111.85,9.80,9.80,3.28,3.28,-3.28,-3.36,-2.76,6.52,6.52,6.52
112.97,9.71,9.72,3.26,3.26,-3.27,-3.34,-2.81,6.45,6.45,6.45
114.10,9.62,9.63,3.25,3.25,-3.25,-3.31,-2.85,6.38,6.38,6.38
115.24,9.53,9.53,3.23,3.23,-3.23,-3.28,-2.90,6.31,6.31,6.31
116.39,9.44,9.44,3.21,3.20,-3.20,-3.26,-2.94,6.24,6.24,6.24
117.55,9.34,9.34,3.18,3.18,-3.18,-3.23,-2.97,6.17,6.17,6.17
118.73,9.24,9.25,3.15,3.15,-3.15,-3.20,-3.01,6.10,6.10,6.10
119.92,9.14,9.14,3.12,3.12,-3.12,-3.16,-3.03,6.03,6.03,6.03
121.12,9.04,9.04,3.09,3.08,-3.08,-3.13,-3.06,5.96,5.96,5.96
122.33,8.93,8.94,3.04,3.05,-3.05,-3.10,-3.07,5.89,5.89,5.89
123.55,8.83,8.83,3.01,3.01,-3.01,-3.07,-3.09,5.82,5.82,5.82
124.79,8.72,8.72,2.97,2.97,-2.97,-3.03,-3.10,5.76,5.75,5.76
126.03,8.61,8.61,2.92,2.93,-2.93,-3.00,-3.10,5.69,5.69,5.69
127.29,8.50,8.50,2.88,2.88,-2.88,-2.97,-3.10,5.62,5.62,5.62
128.57,8.39,8.39,2.84,2.84,-2.83,-2.93,-3.10,5.56,5.56,5.56
129.85,8.28,8.28,2.79,2.79,-2.79,-2.90,-3.08,5.50,5.50,5.50
131.15,8.17,8.17,2.74,2.74,-2.74,-2.86,-3.07,5.44,5.43,5.43
132.46,8.05,8.06,2.68,2.69,-2.69,-2.83,-3.05,5.37,5.37,5.37
133.79,7.94,7.94,2.64,2.64,-2.64,-2.80,-3.03,5.31,5.31,5.31
135.12,7.83,7.83,2.59,2.58,-2.59,-2.76,-3.00,5.25,5.25,5.25
136.48,7.72,7.72,2.54,2.54,-2.54,-2.73,-2.97,5.19,5.19,5.19
137.84,7.61,7.61,2.48,2.48,-2.48,-2.69,-2.93,5.13,5.13,5.13
139.22,7.50,7.50,2.43,2.43,-2.43,-2.66,-2.90,5.07,5.07,5.07
140.61,7.39,7.40,2.38,2.38,-2.38,-2.62,-2.86,5.01,5.02,5.02
142.02,7.29,7.29,2.33,2.33,-2.33,-2.59,-2.81,4.97,4.96,4.96
143.44,7.18,7.18,2.28,2.28,-2.28,-2.56,-2.77,4.91,4.91,4.91
144.87,7.07,7.08,2.22,2.23,-2.22,-2.52,-2.73,4.85,4.85,4.85
146.32,6.97,6.97,2.17,2.17,-2.17,-2.49,-2.68,4.80,4.80,4.80
147.78,6.87,6.87,2.12,2.12,-2.12,-2.45,-2.63,4.76,4.75,4.76
149.26,6.77,6.77,2.07,2.07,-2.07,-2.42,-2.58,4.71,4.71,4.71
150.75,6.67,6.67,2.02,2.01,-2.02,-2.39,-2.53,4.66,4.66,4.66
152.26,6.57,6.58,1.96,1.97,-1.97,-2.36,-2.49,4.61,4.61,4.61
153.78,6.48,6.48,1.92,1.92,-1.92,-2.32,-2.44,4.56,4.56,4.56
155.32,6.39,6.39,1.88,1.88,-1.88,-2.29,-2.39,4.52,4.52,4.52
156.88,6.30,6.30,1.83,1.83,-1.83,-2.26,-2.34,4.47,4.47,4.47
158.44,6.21,6.22,1.79,1.79,-1.79,-2.23,-2.29,4.42,4.42,4.43
160.03,6.13,6.13,1.75,1.75,-1.76,-2.19,-2.25,4.38,4.38,4.38
161.63,6.05,6.05,1.72,1.72,-1.72,-2.16,-2.20,4.33,4.33,4.33
163.24,5.97,5.98,1.69,1.69,-1.69,-2.13,-2.16,4.29,4.29,4.29
164.88,5.90,5.90,1.66,1.66,-1.65,-2.10,-2.11,4.25,4.25,4.25
166.53,5.83,5.84,1.63,1.63,-1.63,-2.07,-2.07,4.21,4.21,4.21
168.19,5.77,5.77,1.60,1.60,-1.60,-2.04,-2.03,4.18,4.17,4.17
169.87,5.70,5.71,1.57,1.57,-1.57,-2.01,-1.99,4.13,4.13,4.13
171.57,5.64,5.65,1.55,1.55,-1.55,-1.98,-1.96,4.09,4.10,4.10
173.29,5.59,5.59,1.53,1.53,-1.53,-1.95,-1.92,4.06,4.06,4.06
175.02,5.53,5.54,1.51,1.51,-1.51,-1.92,-1.89,4.02,4.03,4.03
176.77,5.48,5.49,1.49,1.49,-1.49,-1.89,-1.85,3.99,3.99,3.99
178.54,5.44,5.44,1.48,1.48,-1.48,-1.86,-1.82,3.96,3.96,3.96
180.32,5.39,5.40,1.47,1.47,-1.47,-1.83,-1.79,3.93,3.93,3.93
182.13,5.35,5.35,1.46,1.46,-1.46,-1.80,-1.76,3.90,3.90,3.90
183.95,5.31,5.32,1.45,1.45,-1.45,-1.78,-1.74,3.87,3.87,3.87
185.79,5.28,5.28,1.45,1.44,-1.44,-1.75,-1.71,3.84,3.84,3.84
187.65,5.24,5.25,1.43,1.44,-1.43,-1.72,-1.69,3.81,3.81,3.81
189.52,5.21,5.21,1.43,1.43,-1.43,-1.70,-1.66,3.78,3.78,3.78
191.42,5.18,5.18,1.43,1.43,-1.43,-1.67,-1.64,3.75,3.75,3.76
193.33,5.15,5.16,1.42,1.43,-1.43,-1.65,-1.62,3.73,3.73,3.73
195.27,5.13,5.13,1.43,1.43,-1.43,-1.62,-1.60,3.70,3.70,3.71
197.22,5.11,5.11,1.43,1.43,-1.43,-1.60,-1.59,3.68,3.68,3.68
199.19,5.09,5.09,1.44,1.44,-1.43,-1.58,-1.57,3.66,3.66,3.66
201.18,5.07,5.07,1.44,1.44,-1.44,-1.55,-1.56,3.64,3.64,3.63
203.19,5.05,5.05,1.44,1.44,-1.44,-1.53,-1.54,3.61,3.61,3.61
205.23,5.03,5.03,1.44,1.44,-1.44,-1.51,-1.53,3.59,3.59,3.59
207.28,5.01,5.02,1.44,1.45,-1.45,-1.49,-1.51,3.57,3.57,3.57
209.35,5.00,5.00,1.45,1.45,-1.45,-1.47,-1.50,3.55,3.55,3.55
211.44,4.98,4.99,1.45,1.46,-1.46,-1.46,-1.49,3.53,3.53,3.53
213.56,4.97,4.97,1.46,1.46,-1.46,-1.44,-1.48,3.51,3.51,3.51
215.69,4.96,4.96,1.47,1.47,-1.47,-1.42,-1.46,3.50,3.49,3.49
217.85,4.94,4.95,1.47,1.47,-1.47,-1.41,-1.45,3.47,3.48,3.48
220.03,4.93,4.93,1.48,1.48,-1.48,-1.40,-1.44,3.46,3.46,3.46
222.23,4.92,4.92,1.48,1.48,-1.48,-1.38,-1.42,3.44,3.44,3.44
224.45,4.91,4.91,1.49,1.49,-1.49,-1.37,-1.41,3.43,3.43,3.43
226.70,4.90,4.90,1.49,1.49,-1.49,-1.36,-1.40,3.41,3.41,3.41
228.96,4.88,4.89,1.49,1.49,-1.49,-1.35,-1.38,3.39,3.39,3.40
231.25,4.87,4.87,1.49,1.49,-1.49,-1.35,-1.37,3.38,3.38,3.38
233.57,4.85,4.86,1.49,1.49,-1.49,-1.34,-1.35,3.36,3.36,3.37
235.90,4.84,4.84,1.50,1.49,-1.49,-1.33,-1.33,3.35,3.35,3.34
238.26,4.82,4.82,1.49,1.49,-1.49,-1.33,-1.31,3.33,3.33,3.33
240.64,4.80,4.81,1.49,1.49,-1.49,-1.32,-1.29,3.32,3.32,3.32
243.05,4.78,4.78,1.48,1.48,-1.48,-1.32,-1.26,3.31,3.31,3.31
245.48,4.76,4.76,1.47,1.47,-1.47,-1.31,-1.24,3.30,3.29,3.29
247.93,4.73,4.74,1.45,1.46,-1.45,-1.31,-1.21,3.28,3.28,3.28
250.41,4.71,4.71,1.44,1.44,-1.44,-1.30,-1.18,3.28,3.27,3.27
252.92,4.68,4.68,1.42,1.42,-1.42,-1.29,-1.15,3.27,3.27,3.26
255.45,4.65,4.65,1.39,1.40,-1.40,-1.28,-1.11,3.26,3.26,3.26
258.00,4.62,4.62,1.37,1.37,-1.37,-1.27,-1.08,3.25,3.25,3.25
260.58,4.58,4.59,1.34,1.34,-1.35,-1.25,-1.04,3.24,3.24,3.24
263.19,4.55,4.55,1.32,1.32,-1.32,-1.23,-1.00,3.23,3.23,3.23
265.82,4.51,4.51,1.29,1.29,-1.29,-1.20,-0.96,3.22,3.22,3.22
268.48,4.47,4.47,1.26,1.26,-1.26,-1.18,-0.92,3.21,3.21,3.22
271.16,4.43,4.43,1.23,1.23,-1.23,-1.14,-0.87,3.20,3.21,3.21
273.87,4.39,4.39,1.19,1.19,-1.19,-1.11,-0.83,3.20,3.20,3.20
276.61,4.35,4.35,1.16,1.16,-1.16,-1.06,-0.78,3.20,3.19,3.19
279.38,4.30,4.31,1.12,1.12,-1.12,-1.02,-0.73,3.18,3.19,3.18
282.17,4.26,4.26,1.09,1.08,-1.08,-0.97,-0.68,3.19,3.18,3.18
284.99,4.21,4.21,1.03,1.03,-1.03,-0.91,-0.63,3.18,3.18,3.18
287.84,4.16,4.16,0.98,0.99,-0.99,-0.86,-0.57,3.18,3.18,3.18
290.72,4.11,4.11,0.94,0.94,-0.94,-0.80,-0.52,3.17,3.17,3.18
293.63,4.06,4.06,0.89,0.89,-0.89,-0.74,-0.46,3.17,3.18,3.17
296.57,4.01,4.01,0.84,0.84,-0.84,-0.67,-0.41,3.18,3.18,3.18
299.53,3.96,3.96,0.78,0.79,-0.79,-0.61,-0.35,3.18,3.18,3.18
302.53,3.90,3.91,0.73,0.73,-0.73,-0.55,-0.29,3.17,3.17,3.17
305.55,3.85,3.85,0.68,0.68,-0.68,-0.48,-0.23,3.18,3.17,3.18
308.61,3.79,3.80,0.62,0.62,-0.62,-0.42,-0.17,3.17,3.17,3.17
311.69,3.74,3.74,0.57,0.56,-0.57,-0.36,-0.11,3.18,3.18,3.18
314.81,3.68,3.68,0.51,0.51,-0.51,-0.30,-0.05,3.18,3.18,3.17
317.96,3.62,3.62,0.44,0.45,-0.45,-0.24,0.01,3.18,3.18,3.18
321.14,3.56,3.56,0.39,0.39,-0.38,-0.17,0.08,3.18,3.18,3.17
324.35,3.50,3.50,0.32,0.32,-0.32,-0.11,0.14,3.18,3.18,3.18
327.59,3.44,3.44,0.25,0.25,-0.26,-0.06,0.20,3.19,3.19,3.20
330.87,3.38,3.38,0.19,0.19,-0.19,0.00,0.27,3.19,3.19,3.19
334.18,3.31,3.32,0.12,0.12,-0.12,0.06,0.33,3.19,3.20,3.20
337.52,3.25,3.25,0.06,0.05,-0.05,0.11,0.40,3.20,3.20,3.19
340.90,3.18,3.18,-0.02,-0.02,0.02,0.17,0.46,3.21,3.21,3.20
344.30,3.11,3.11,-0.09,-0.09,0.09,0.22,0.53,3.21,3.21,3.21
347.75,3.04,3.04,-0.17,-0.17,0.17,0.28,0.60,3.21,3.21,3.21
351.23,2.97,2.97,-0.24,-0.24,0.24,0.33,0.66,3.21,3.21,3.21
354.74,2.90,2.91,-0.32,-0.31,0.31,0.38,0.73,3.22,3.22,3.23
358.28,2.84,2.84,-0.38,-0.39,0.39,0.43,0.80,3.23,3.23,3.23
361.87,2.77,2.77,-0.46,-0.46,0.46,0.48,0.87,3.23,3.23,3.23
365.49,2.70,2.71,-0.54,-0.53,0.53,0.54,0.94,3.23,3.24,3.24
369.14,2.64,2.64,-0.59,-0.60,0.60,0.59,1.01,3.24,3.24,3.24
372.83,2.57,2.58,-0.68,-0.67,0.67,0.63,1.08,3.24,3.24,3.25
376.56,2.51,2.51,-0.74,-0.74,0.74,0.68,1.15,3.25,3.25,3.25
380.33,2.45,2.45,-0.81,-0.80,0.81,0.73,1.22,3.26,3.26,3.26
384.13,2.39,2.39,-0.86,-0.87,0.88,0.78,1.29,3.27,3.27,3.26
387.97,2.33,2.33,-0.94,-0.94,0.95,0.83,1.36,3.28,3.28,3.28
391.85,2.26,2.27,-1.03,-1.02,1.02,0.88,1.43,3.28,3.28,3.29
395.77,2.20,2.20,-1.09,-1.09,1.09,0.93,1.50,3.29,3.29,3.29
399.73,2.14,2.14,-1.16,-1.16,1.16,0.97,1.58,3.30,3.30,3.30
403.72,2.07,2.08,-1.23,-1.23,1.23,1.02,1.65,3.30,3.30,3.31
407.76,2.01,2.01,-1.29,-1.30,1.30,1.07,1.72,3.31,3.31,3.31
411.84,1.94,1.95,-1.37,-1.37,1.37,1.12,1.79,3.31,3.31,3.31
415.96,1.88,1.88,-1.44,-1.44,1.44,1.17,1.86,3.32,3.32,3.32
420.12,1.81,1.82,-1.51,-1.51,1.51,1.21,1.94,3.32,3.32,3.32
424.32,1.75,1.75,-1.57,-1.58,1.58,1.26,2.01,3.33,3.33,3.33
428.56,1.68,1.69,-1.65,-1.65,1.65,1.31,2.08,3.34,3.34,3.34
432.85,1.62,1.62,-1.72,-1.72,1.73,1.36,2.14,3.35,3.35,3.35
437.18,1.55,1.56,-1.80,-1.80,1.80,1.41,2.21,3.35,3.35,3.35
441.55,1.49,1.49,-1.87,-1.87,1.87,1.46,2.28,3.36,3.36,3.36
445.96,1.43,1.43,-1.94,-1.94,1.94,1.50,2.34,3.37,3.37,3.37
450.42,1.37,1.37,-2.02,-2.02,2.01,1.55,2.40,3.38,3.38,3.39
454.93,1.31,1.31,-2.09,-2.08,2.08,1.60,2.46,3.39,3.39,3.40
459.48,1.25,1.26,-2.15,-2.15,2.15,1.65,2.52,3.40,3.40,3.41
464.07,1.20,1.20,-2.20,-2.21,2.21,1.70,2.57,3.42,3.41,3.41
468.71,1.14,1.14,-2.27,-2.27,2.28,1.75,2.63,3.42,3.42,3.42
473.40,1.08,1.09,-2.34,-2.34,2.34,1.80,2.68,3.43,3.43,3.42
478.13,1.03,1.03,-2.40,-2.41,2.41,1.85,2.72,3.44,3.44,3.43
482.91,0.97,0.97,-2.48,-2.48,2.47,1.90,2.76,3.45,3.45,3.45
487.74,0.91,0.92,-2.55,-2.54,2.54,1.95,2.80,3.45,3.46,3.46
492.62,0.86,0.86,-2.61,-2.61,2.60,2.00,2.84,3.47,3.47,3.47
497.55,0.81,0.81,-2.67,-2.67,2.67,2.06,2.87,3.48,3.48,3.48
502.52,0.76,0.76,-2.73,-2.73,2.73,2.11,2.90,3.50,3.50,3.49
507.55,0.71,0.71,-2.79,-2.79,2.80,2.16,2.92,3.51,3.51,3.51
512.62,0.66,0.66,-2.85,-2.85,2.86,2.21,2.95,3.52,3.52,3.52
