frequency,raw
20.00,13.26
20.20,13.25
20.40,13.25
20.61,13.24
20.81,13.23
21.02,13.22
21.23,13.20
21.44,13.19
21.66,13.17
21.87,13.15
22.09,13.13
22.31,13.11
22.54,13.10
22.76,13.08
22.99,13.08
23.22,13.07
23.45,13.06
23.69,13.04
23.92,13.02
24.16,13.00
24.40,12.97
24.65,12.94
24.89,12.91
25.14,12.88
25.39,12.85
25.65,12.83
25.91,12.81
26.16,12.80
26.43,12.78
26.69,12.76
26.96,12.75
27.23,12.73
27.50,12.71
27.77,12.69
28.05,12.66
28.33,12.64
28.62,12.61
28.90,12.59
29.19,12.56
29.48,12.54
29.78,12.51
30.08,12.49
30.38,12.46
30.68,12.43
30.99,12.40
31.30,12.37
31.61,12.34
31.93,12.31
32.24,12.28
32.57,12.25
32.89,12.22
33.22,12.19
33.55,12.16
33.89,12.13
34.23,12.10
34.57,12.07
34.92,12.03
35.27,12.00
35.62,11.96
35.97,11.92
36.33,11.89
36.70,11.86
37.06,11.83
37.43,11.79
37.81,11.76
38.19,11.72
38.57,11.68
38.95,11.65
39.34,11.62
39.74,11.59
40.14,11.55
40.54,11.51
40.94,11.48
41.35,11.44
41.76,11.41
42.18,11.37
42.60,11.34
43.03,11.30
43.46,11.25
43.90,11.20
44.33,11.15
44.78,11.11
45.23,11.06
45.68,11.03
46.13,10.99
46.60,10.95
47.06,10.91
47.53,10.87
48.01,10.83
48.49,10.78
48.97,10.73
49.46,10.68
49.96,10.63
50.46,10.59
50.96,10.55
51.47,10.51
51.99,10.46
52.51,10.41
53.03,10.34
53.56,10.27
54.10,10.22
54.64,10.18
55.18,10.16
55.74,10.15
56.29,10.12
56.86,10.08
57.42,10.02
58.00,9.96
58.58,9.90
59.16,9.85
59.76,9.81
60.35,9.76
60.96,9.72
61.57,9.67
62.18,9.62
62.80,9.57
63.43,9.53
64.07,9.48
64.71,9.42
65.35,9.36
66.01,9.30
66.67,9.25
67.33,9.20
68.01,9.15
68.69,9.09
69.37,9.04
70.07,8.98
70.77,8.93
71.48,8.87
72.19,8.82
72.91,8.77
73.64,8.72
74.38,8.66
75.12,8.61
75.87,8.55
76.63,8.49
77.40,8.42
78.17,8.36
78.95,8.31
79.74,8.26
80.54,8.21
81.35,8.15
82.16,8.08
82.98,8.02
83.81,7.97
84.65,7.91
85.50,7.86
86.35,7.80
87.22,7.74
88.09,7.69
88.97,7.63
89.86,7.57
90.76,7.51
91.66,7.46
92.58,7.40
93.51,7.34
94.44,7.28
95.39,7.22
96.34,7.16
97.30,7.11
98.28,7.05
99.26,6.99
100.25,6.92
101.25,6.86
102.27,6.81
103.29,6.75
104.32,6.70
105.37,6.63
106.42,6.57
107.48,6.51
108.56,6.45
109.64,6.38
110.74,6.32
111.85,6.25
112.97,6.19
114.10,6.13
115.24,6.07
116.39,6.01
117.55,5.95
118.73,5.88
119.92,5.82
121.12,5.76
122.33,5.70
123.55,5.65
124.79,5.60
126.03,5.53
127.29,5.47
128.57,5.40
129.85,5.34
131.15,5.28
132.46,5.22
133.79,5.16
135.12,5.09
136.48,5.03
137.84,4.96
139.22,4.90
140.61,4.84
142.02,4.79
143.44,4.73
144.87,4.66
146.32,4.59
147.78,4.52
149.26,4.45
150.75,4.40
152.26,4.34
153.78,4.29
155.32,4.23
156.88,4.17
158.44,4.10
160.03,4.03
161.63,3.97
163.24,3.91
164.88,3.85
166.53,3.79
168.19,3.73
169.87,3.67
171.57,3.61
173.29,3.55
175.02,3.49
176.77,3.43
178.54,3.37
180.32,3.32
182.13,3.27
183.95,3.22
185.79,3.16
187.65,3.10
189.52,3.05
191.42,3.00
193.33,2.94
195.27,2.88
197.22,2.81
199.19,2.75
201.18,2.70
203.19,2.64
205.23,2.59
207.28,2.53
209.35,2.48
211.44,2.42
213.56,2.36
215.69,2.30
217.85,2.24
220.03,2.18
222.23,2.12
224.45,2.05
226.70,1.99
228.96,1.94
231.25,1.88
233.57,1.83
235.90,1.77
238.26,1.72
240.64,1.67
243.05,1.62
245.48,1.56
247.93,1.50
250.41,1.44
252.92,1.40
255.45,1.35
258.00,1.30
260.58,1.26
263.19,1.22
265.82,1.17
268.48,1.12
271.16,1.07
273.87,1.01
276.61,0.96
279.38,0.90
282.17,0.85
284.99,0.78
287.84,0.73
290.72,0.68
293.63,0.64
296.57,0.59
299.53,0.54
302.53,0.49
305.55,0.45
308.61,0.40
311.69,0.35
314.81,0.30
317.96,0.25
321.14,0.21
324.35,0.17
327.59,0.13
330.87,0.09
334.18,0.05
337.52,0.01
340.90,-0.04
344.30,-0.09
347.75,-0.13
351.23,-0.16
354.74,-0.20
358.28,-0.24
361.87,-0.28
365.49,-0.33
369.14,-0.38
372.83,-0.42
376.56,-0.45
380.33,-0.48
384.13,-0.52
387.97,-0.56
391.85,-0.59
395.77,-0.63
399.73,-0.67
403.72,-0.71
407.76,-0.74
411.84,-0.77
415.96,-0.80
420.12,-0.83
424.32,-0.86
428.56,-0.90
432.85,-0.94
437.18,-0.97
441.55,-1.01
445.96,-1.05
450.42,-1.08
454.93,-1.12
459.48,-1.15
464.07,-1.19
468.71,-1.23
473.40,-1.26
478.13,-1.29
482.91,-1.31
487.74,-1.33
492.62,-1.35
497.55,-1.38
502.52,-1.41
507.55,-1.44
512.62,-1.47
517.75,-1.49
522.93,-1.52
528.16,-1.54
533.44,-1.57
538.77,-1.59
544.16,-1.61
549.60,-1.63
555.10,-1.64
560.65,-1.66
566.25,-1.66
571.92,-1.66
577.64,-1.67
583.41,-1.68
589.25,-1.70
595.14,-1.73
601.09,-1.76
607.10,-1.79
613.17,-1.81
619.30,-1.83
625.50,-1.85
631.75,-1.86
638.07,-1.87
644.45,-1.89
650.89,-1.90
657.40,-1.91
663.98,-1.92
670.62,-1.93
677.32,-1.93
684.10,-1.93
690.94,-1.93
697.85,-1.93
704.83,-1.93
711.87,-1.93
718.99,-1.92
726.18,-1.91
733.44,-1.90
740.78,-1.89
748.19,-1.88
755.67,-1.86
763.23,-1.83
770.86,-1.80
778.57,-1.76
786.35,-1.72
794.22,-1.66
802.16,-1.61
810.18,-1.55
818.28,-1.49
826.46,-1.42
834.73,-1.34
843.08,-1.24
851.51,-1.14
860.02,-1.03
868.62,-0.90
877.31,-0.77
886.08,-0.65
894.94,-0.53
903.89,-0.42
912.93,-0.31
922.06,-0.22
931.28,-0.15
940.59,-0.10
950.00,-0.05
959.50,-0.03
969.09,-0.01
978.78,-0.00
988.57,0.00
998.46,0.00
1008.44,-0.00
1018.53,-0.01
1028.71,-0.02
1039.00,-0.02
1049.39,-0.02
1059.88,-0.01
1070.48,-0.01
1081.19,-0.00
1092.00,0.01
1102.92,0.02
1113.95,0.03
1125.09,0.04
1136.34,0.05
1147.70,0.06
1159.18,0.06
1170.77,0.07
1182.48,0.08
1194.30,0.08
1206.25,0.09
1218.31,0.09
1230.49,0.09
1242.80,0.09
1255.22,0.10
1267.78,0.10
1280.45,0.12
1293.26,0.14
1306.19,0.16
1319.25,0.18
1332.45,0.20
1345.77,0.23
1359.23,0.26
1372.82,0.31
1386.55,0.35
1400.41,0.41
1414.42,0.46
1428.56,0.52
1442.85,0.58
1457.28,0.64
1471.85,0.71
1486.57,0.77
1501.43,0.84
1516.45,0.90
1531.61,0.97
1546.93,1.04
1562.40,1.11
1578.02,1.18
1593.80,1.25
1609.74,1.32
1625.84,1.40
1642.10,1.47
1658.52,1.55
1675.10,1.63
1691.85,1.70
1708.77,1.78
1725.86,1.85
1743.12,1.92
1760.55,1.99
1778.15,2.07
1795.94,2.14
1813.90,2.21
1832.03,2.28
1850.36,2.35
1868.86,2.42
1887.55,2.49
1906.42,2.56
1925.49,2.62
1944.74,2.68
1964.19,2.74
1983.83,2.80
2003.67,2.86
2023.71,2.91
2043.94,2.96
2064.38,3.01
2085.03,3.06
2105.88,3.10
2126.94,3.13
2148.20,3.16
2169.69,3.19
2191.38,3.22
2213.30,3.24
2235.43,3.26
2257.78,3.26
2280.36,3.27
2303.17,3.26
2326.20,3.26
2349.46,3.25
2372.95,3.24
2396.68,3.22
2420.65,3.19
2444.86,3.16
2469.31,3.14
2494.00,3.11
2518.94,3.08
2544.13,3.05
2569.57,3.01
2595.27,2.97
2621.22,2.92
2647.43,2.88
2673.90,2.83
2700.64,2.79
2727.65,2.74
2754.93,2.69
2782.48,2.64
2810.30,2.58
2838.40,2.53
2866.79,2.47
2895.46,2.42
2924.41,2.36
2953.65,2.30
2983.19,2.24
3013.02,2.18
3043.15,2.12
3073.58,2.07
3104.32,2.01
3135.36,1.96
3166.72,1.91
3198.38,1.87
3230.37,1.84
3262.67,1.81
3295.30,1.78
3328.25,1.76
3361.53,1.74
3395.15,1.73
3429.10,1.72
3463.39,1.71
3498.03,1.71
3533.01,1.73
3568.34,1.74
3604.02,1.76
3640.06,1.79
3676.46,1.84
3713.22,1.89
3750.36,1.94
3787.86,2.01
3825.74,2.09
3864.00,2.17
3902.64,2.28
3941.66,2.38
3981.08,2.50
4020.89,2.62
4061.10,2.75
4101.71,2.89
4142.73,3.04
4184.15,3.19
4226.00,3.35
4268.26,3.51
4310.94,3.67
4354.05,3.83
4397.59,3.99
4441.56,4.13
4485.98,4.24
4530.84,4.31
4576.15,4.34
4621.91,4.33
4668.13,4.25
4714.81,4.11
4761.96,3.95
4809.58,3.75
4857.67,3.55
4906.25,3.37
4955.31,3.21
5004.87,3.06
5054.91,2.86
5105.46,2.61
5156.52,2.32
5208.08,1.97
5260.16,1.61
5312.77,1.24
5365.89,0.87
5419.55,0.50
5473.75,0.12
5528.49,-0.26
5583.77,-0.64
5639.61,-1.01
5696.00,-1.37
5752.96,-1.70
5810.49,-2.02
5868.60,-2.30
5927.28,-2.57
5986.56,-2.83
6046.42,-3.07
6106.89,-3.28
6167.96,-3.46
6229.64,-3.63
6291.93,-3.77
6354.85,-3.88
6418.40,-3.98
6482.58,-4.04
6547.41,-4.08
6612.88,-4.08
6679.01,-4.04
6745.80,-3.94
6813.26,-3.81
6881.39,-3.63
6950.21,-3.42
7019.71,-3.17
7089.91,-2.89
7160.81,-2.57
7232.41,-2.23
7304.74,-1.88
7377.79,-1.51
7451.56,-1.12
7526.08,-0.72
7601.34,-0.31
7677.35,0.08
7754.13,0.46
7831.67,0.71
7909.98,0.88
7989.08,0.93
8068.98,0.78
8149.67,0.51
8231.16,0.09
8313.47,-0.47
8396.61,-1.08
8480.57,-1.75
8565.38,-2.44
8651.03,-3.13
8737.54,-3.83
8824.92,-4.49
8913.17,-5.09
9002.30,-5.65
9092.32,-6.11
9183.25,-6.51
9275.08,-6.87
9367.83,-7.18
9461.51,-7.47
9556.12,-7.73
9651.68,-7.92
9748.20,-8.06
9845.68,-8.10
9944.14,-8.10
10043.58,-8.02
10144.02,-7.89
10245.46,-7.63
10347.91,-7.32
10451.39,-6.95
10555.91,-6.50
10661.46,-6.00
10768.08,-5.46
10875.76,-4.89
10984.52,-4.37
11094.36,-3.91
11205.31,-3.59
11317.36,-3.56
11430.53,-3.67
11544.84,-4.07
11660.29,-4.64
11776.89,-5.29
11894.66,-6.07
12013.60,-6.85
12133.74,-7.60
12255.08,-8.28
12377.63,-8.90
12501.41,-9.43
12626.42,-9.87
12752.68,-10.25
12880.21,-10.50
13009.01,-10.67
13139.10,-10.84
13270.49,-10.76
13403.20,-10.63
13537.23,-10.41
13672.60,-10.19
13809.33,-9.95
13947.42,-9.76
14086.90,-9.66
14227.77,-9.62
14370.04,-9.64
14513.74,-9.73
14658.88,-9.92
14805.47,-10.17
14953.52,-10.51
15103.06,-10.90
15254.09,-11.30
15406.63,-11.68
15560.70,-12.11
15716.30,-12.63
15873.47,-13.30
16032.20,-14.05
16192.52,-14.96
16354.45,-16.09
16517.99,-17.37
16683.17,-18.91
16850.01,-20.52
17018.51,-22.15
17188.69,-23.60
17360.58,-24.68
17534.18,-25.42
17709.53,-25.57
17886.62,-25.32
18065.49,-24.86
18246.14,-24.25
18428.60,-23.40
18612.89,-22.46
18799.02,-21.47
18987.01,-20.49
19176.88,-19.42
19368.65,-17.73
19562.33,-15.29
19757.96,-12.08
19955.54,-9.78
