frequency,raw
20.00,10.83
20.20,10.81
20.40,10.79
20.61,10.76
20.81,10.74
21.02,10.71
21.23,10.69
21.44,10.66
21.66,10.63
21.87,10.61
22.09,10.58
22.31,10.55
22.54,10.51
22.76,10.48
22.99,10.45
23.22,10.42
23.45,10.38
23.69,10.35
23.92,10.33
24.16,10.30
24.40,10.27
24.65,10.24
24.89,10.20
25.14,10.17
25.39,10.14
25.65,10.11
25.91,10.07
26.16,10.04
26.43,10.01
26.69,9.98
26.96,9.95
27.23,9.92
27.50,9.88
27.77,9.85
28.05,9.81
28.33,9.78
28.62,9.74
28.90,9.71
29.19,9.68
29.48,9.64
29.78,9.61
30.08,9.57
30.38,9.53
30.68,9.50
30.99,9.46
31.30,9.42
31.61,9.38
31.93,9.35
32.24,9.31
32.57,9.27
32.89,9.23
33.22,9.19
33.55,9.16
33.89,9.12
34.23,9.08
34.57,9.04
34.92,9.00
35.27,8.96
35.62,8.92
35.97,8.88
36.33,8.84
36.70,8.81
37.06,8.77
37.43,8.73
37.81,8.69
38.19,8.65
38.57,8.61
38.95,8.57
39.34,8.53
39.74,8.48
40.14,8.44
40.54,8.40
40.94,8.36
41.35,8.32
41.76,8.28
42.18,8.24
42.60,8.20
43.03,8.15
43.46,8.11
43.90,8.07
44.33,8.03
44.78,7.98
45.23,7.94
45.68,7.89
46.13,7.85
46.60,7.81
47.06,7.77
47.53,7.73
48.01,7.69
48.49,7.65
48.97,7.61
49.46,7.57
49.96,7.53
50.46,7.49
50.96,7.44
51.47,7.40
51.99,7.35
52.51,7.31
53.03,7.27
53.56,7.24
54.10,7.20
54.64,7.16
55.18,7.12
55.74,7.07
56.29,7.03
56.86,6.99
57.42,6.96
58.00,6.92
58.58,6.88
59.16,6.84
59.76,6.80
60.35,6.76
60.96,6.72
61.57,6.69
62.18,6.65
62.80,6.61
63.43,6.57
64.07,6.52
64.71,6.48
65.35,6.44
66.01,6.40
66.67,6.36
67.33,6.32
68.01,6.27
68.69,6.24
69.37,6.22
70.07,6.19
70.77,6.15
71.48,6.10
72.19,6.04
72.91,5.99
73.64,5.94
74.38,5.90
75.12,5.87
75.87,5.83
76.63,5.79
77.40,5.75
78.17,5.71
78.95,5.67
79.74,5.63
80.54,5.60
81.35,5.56
82.16,5.52
82.98,5.48
83.81,5.44
84.65,5.40
85.50,5.36
86.35,5.33
87.22,5.29
88.09,5.25
88.97,5.21
89.86,5.18
90.76,5.14
91.66,5.10
92.58,5.06
93.51,5.02
94.44,4.99
95.39,4.95
96.34,4.91
97.30,4.88
98.28,4.84
99.26,4.81
100.25,4.77
101.25,4.74
102.27,4.70
103.29,4.66
104.32,4.62
105.37,4.59
106.42,4.55
107.48,4.51
108.56,4.48
109.64,4.44
110.74,4.41
111.85,4.37
112.97,4.34
114.10,4.30
115.24,4.26
116.39,4.23
117.55,4.19
118.73,4.15
119.92,4.12
121.12,4.08
122.33,4.05
123.55,4.02
124.79,3.98
126.03,3.95
127.29,3.91
128.57,3.87
129.85,3.84
131.15,3.80
132.46,3.78
133.79,3.76
135.12,3.72
136.48,3.68
137.84,3.63
139.22,3.61
140.61,3.58
142.02,3.53
143.44,3.48
144.87,3.44
146.32,3.40
147.78,3.37
149.26,3.33
150.75,3.30
152.26,3.26
153.78,3.23
155.32,3.19
156.88,3.16
158.44,3.12
160.03,3.09
161.63,3.06
163.24,3.03
164.88,3.00
166.53,2.97
168.19,2.94
169.87,2.91
171.57,2.88
173.29,2.84
175.02,2.81
176.77,2.78
178.54,2.75
180.32,2.72
182.13,2.70
183.95,2.67
185.79,2.64
187.65,2.61
189.52,2.58
191.42,2.55
193.33,2.52
195.27,2.49
197.22,2.46
199.19,2.43
201.18,2.40
203.19,2.37
205.23,2.34
207.28,2.30
209.35,2.27
211.44,2.24
213.56,2.21
215.69,2.18
217.85,2.15
220.03,2.11
222.23,2.08
224.45,2.05
226.70,2.02
228.96,1.99
231.25,1.96
233.57,1.93
235.90,1.90
238.26,1.87
240.64,1.84
243.05,1.81
245.48,1.78
247.93,1.75
250.41,1.72
252.92,1.69
255.45,1.66
258.00,1.63
260.58,1.60
263.19,1.57
265.82,1.54
268.48,1.51
271.16,1.49
273.87,1.46
276.61,1.43
279.38,1.40
282.17,1.37
284.99,1.35
287.84,1.32
290.72,1.29
293.63,1.26
296.57,1.24
299.53,1.21
302.53,1.18
305.55,1.16
308.61,1.13
311.69,1.11
314.81,1.08
317.96,1.05
321.14,1.03
324.35,1.00
327.59,0.98
330.87,0.95
334.18,0.93
337.52,0.90
340.90,0.88
344.30,0.86
347.75,0.83
351.23,0.81
354.74,0.78
358.28,0.76
361.87,0.74
365.49,0.72
369.14,0.69
372.83,0.67
376.56,0.65
380.33,0.62
384.13,0.59
387.97,0.56
391.85,0.54
395.77,0.52
399.73,0.51
403.72,0.49
407.76,0.47
411.84,0.44
415.96,0.42
420.12,0.40
424.32,0.38
428.56,0.36
432.85,0.34
437.18,0.32
441.55,0.30
445.96,0.28
450.42,0.26
454.93,0.23
459.48,0.21
464.07,0.19
468.71,0.17
473.40,0.16
478.13,0.14
482.91,0.12
487.74,0.10
492.62,0.07
497.55,0.05
502.52,0.04
507.55,0.02
512.62,0.01
517.75,-0.01
522.93,-0.03
528.16,-0.05
533.44,-0.07
538.77,-0.09
544.16,-0.11
549.60,-0.12
555.10,-0.13
560.65,-0.15
566.25,-0.17
571.92,-0.18
577.64,-0.20
583.41,-0.22
589.25,-0.23
595.14,-0.24
601.09,-0.25
607.10,-0.25
613.17,-0.27
619.30,-0.30
625.50,-0.33
631.75,-0.35
638.07,-0.34
644.45,-0.35
650.89,-0.36
657.40,-0.37
663.98,-0.38
670.62,-0.39
677.32,-0.40
684.10,-0.41
690.94,-0.42
697.85,-0.43
704.83,-0.44
711.87,-0.45
718.99,-0.46
726.18,-0.46
733.44,-0.46
740.78,-0.46
748.19,-0.46
755.67,-0.46
763.23,-0.46
770.86,-0.47
778.57,-0.47
786.35,-0.47
794.22,-0.47
802.16,-0.47
810.18,-0.46
818.28,-0.46
826.46,-0.45
834.73,-0.45
843.08,-0.44
851.51,-0.44
860.02,-0.42
868.62,-0.41
877.31,-0.39
886.08,-0.38
894.94,-0.36
903.89,-0.34
912.93,-0.31
922.06,-0.29
931.28,-0.26
940.59,-0.23
950.00,-0.19
959.50,-0.16
969.09,-0.12
978.78,-0.08
988.57,-0.04
998.46,-0.01
1008.44,0.03
1018.53,0.07
1028.71,0.11
1039.00,0.15
1049.39,0.19
1059.88,0.22
1070.48,0.26
1081.19,0.30
1092.00,0.34
1102.92,0.38
1113.95,0.42
1125.09,0.45
1136.34,0.49
1147.70,0.52
1159.18,0.56
1170.77,0.59
1182.48,0.62
1194.30,0.65
1206.25,0.67
1218.31,0.70
1230.49,0.72
1242.80,0.74
1255.22,0.76
1267.78,0.78
1280.45,0.80
1293.26,0.82
1306.19,0.84
1319.25,0.85
1332.45,0.87
1345.77,0.88
1359.23,0.89
1372.82,0.90
1386.55,0.90
1400.41,0.91
1414.42,0.91
1428.56,0.92
1442.85,0.92
1457.28,0.92
1471.85,0.92
1486.57,0.92
1501.43,0.91
1516.45,0.91
1531.61,0.91
1546.93,0.90
1562.40,0.90
1578.02,0.90
1593.80,0.89
1609.74,0.89
1625.84,0.89
1642.10,0.90
1658.52,0.90
1675.10,0.90
1691.85,0.90
1708.77,0.91
1725.86,0.91
1743.12,0.91
1760.55,0.92
1778.15,0.92
1795.94,0.93
1813.90,0.93
1832.03,0.94
1850.36,0.94
1868.86,0.95
1887.55,0.96
1906.42,0.97
1925.49,0.98
1944.74,0.99
1964.19,1.00
1983.83,1.01
2003.67,1.02
2023.71,1.03
2043.94,1.05
2064.38,1.06
2085.03,1.08
2105.88,1.10
2126.94,1.12
2148.20,1.14
2169.69,1.16
2191.38,1.18
2213.30,1.21
2235.43,1.23
2257.78,1.26
2280.36,1.29
2303.17,1.32
2326.20,1.35
2349.46,1.39
2372.95,1.43
2396.68,1.47
2420.65,1.51
2444.86,1.55
2469.31,1.60
2494.00,1.65
2518.94,1.71
2544.13,1.77
2569.57,1.83
2595.27,1.90
2621.22,1.97
2647.43,2.05
2673.90,2.12
2700.64,2.20
2727.65,2.28
2754.93,2.37
2782.48,2.46
2810.30,2.55
2838.40,2.64
2866.79,2.74
2895.46,2.84
2924.41,2.95
2953.65,3.06
2983.19,3.17
3013.02,3.28
3043.15,3.40
3073.58,3.52
3104.32,3.64
3135.36,3.77
3166.72,3.90
3198.38,4.04
3230.37,4.17
3262.67,4.30
3295.30,4.44
3328.25,4.56
3361.53,4.69
3395.15,4.80
3429.10,4.91
3463.39,5.02
3498.03,5.12
3533.01,5.21
3568.34,5.29
3604.02,5.37
3640.06,5.44
3676.46,5.51
3713.22,5.57
3750.36,5.63
3787.86,5.67
3825.74,5.71
3864.00,5.74
3902.64,5.74
3941.66,5.75
3981.08,5.74
4020.89,5.70
4061.10,5.65
4101.71,5.58
4142.73,5.50
4184.15,5.41
4226.00,5.30
4268.26,5.18
4310.94,5.06
4354.05,4.92
4397.59,4.79
4441.56,4.65
4485.98,4.51
4530.84,4.37
4576.15,4.23
4621.91,4.10
4668.13,3.97
4714.81,3.85
4761.96,3.74
4809.58,3.64
4857.67,3.55
4906.25,3.48
4955.31,3.41
5004.87,3.35
5054.91,3.31
5105.46,3.27
5156.52,3.24
5208.08,3.23
5260.16,3.23
5312.77,3.24
5365.89,3.27
5419.55,3.31
5473.75,3.35
5528.49,3.41
5583.77,3.48
5639.61,3.56
5696.00,3.65
5752.96,3.74
5810.49,3.84
5868.60,3.94
5927.28,4.06
5986.56,4.17
6046.42,4.30
6106.89,4.44
6167.96,4.59
6229.64,4.76
6291.93,4.95
6354.85,5.16
6418.40,5.39
6482.58,5.64
6547.41,5.92
6612.88,6.21
6679.01,6.52
6745.80,6.86
6813.26,7.22
6881.39,7.59
6950.21,7.98
7019.71,8.37
7089.91,8.75
7160.81,9.12
7232.41,9.48
7304.74,9.83
7377.79,10.15
7451.56,10.43
7526.08,10.69
7601.34,10.92
7677.35,11.10
7754.13,11.27
7831.67,11.35
7909.98,11.41
7989.08,11.41
8068.98,11.32
8149.67,11.17
8231.16,10.95
8313.47,10.64
8396.61,10.29
8480.57,9.86
8565.38,9.37
8651.03,8.85
8737.54,8.30
8824.92,7.73
8913.17,7.16
9002.30,6.58
9092.32,6.01
9183.25,5.46
9275.08,4.92
9367.83,4.40
9461.51,3.90
9556.12,3.41
9651.68,2.95
9748.20,2.49
9845.68,2.06
9944.14,1.64
10043.58,1.24
10144.02,0.85
10245.46,0.49
10347.91,0.13
10451.39,-0.21
10555.91,-0.52
10661.46,-0.83
10768.08,-1.12
10875.76,-1.38
10984.52,-1.62
11094.36,-1.84
11205.31,-2.02
11317.36,-2.16
11430.53,-2.28
11544.84,-2.34
11660.29,-2.38
11776.89,-2.38
11894.66,-2.32
12013.60,-2.24
12133.74,-2.14
12255.08,-2.03
12377.63,-1.92
12501.41,-1.81
12626.42,-1.69
12752.68,-1.55
12880.21,-1.38
13009.01,-1.20
13139.10,-1.01
13270.49,-0.81
13403.20,-0.61
13537.23,-0.41
13672.60,-0.20
13809.33,0.02
13947.42,0.26
14086.90,0.51
14227.77,0.78
14370.04,1.03
14513.74,1.26
14658.88,1.37
14805.47,1.39
14953.52,1.24
15103.06,0.89
15254.09,0.45
15406.63,-0.22
15560.70,-0.95
15716.30,-1.75
15873.47,-2.50
16032.20,-3.20
16192.52,-3.72
16354.45,-4.11
16517.99,-4.42
16683.17,-4.66
16850.01,-4.87
17018.51,-5.06
17188.69,-5.20
17360.58,-5.28
17534.18,-5.29
17709.53,-5.20
17886.62,-4.99
18065.49,-4.68
18246.14,-4.26
18428.60,-3.68
18612.89,-3.00
18799.02,-2.26
18987.01,-1.46
19176.88,-0.75
19368.65,-0.20
19562.33,0.13
19757.96,0.20
19955.54,0.05
