frequency,raw
20.00,7.76
20.20,7.72
20.40,7.69
20.61,7.65
20.81,7.60
21.02,7.56
21.23,7.52
21.44,7.48
21.66,7.44
21.87,7.40
22.09,7.37
22.31,7.34
22.54,7.31
22.76,7.28
22.99,7.25
23.22,7.23
23.45,7.20
23.69,7.18
23.92,7.15
24.16,7.13
24.40,7.11
24.65,7.09
24.89,7.06
25.14,7.04
25.39,7.02
25.65,7.00
25.91,6.97
26.16,6.95
26.43,6.93
26.69,6.90
26.96,6.88
27.23,6.86
27.50,6.84
27.77,6.81
28.05,6.79
28.33,6.77
28.62,6.74
28.90,6.72
29.19,6.70
29.48,6.68
29.78,6.66
30.08,6.64
30.38,6.62
30.68,6.60
30.99,6.57
31.30,6.55
31.61,6.53
31.93,6.50
32.24,6.48
32.57,6.46
32.89,6.44
33.22,6.41
33.55,6.39
33.89,6.37
34.23,6.35
34.57,6.33
34.92,6.31
35.27,6.28
35.62,6.26
35.97,6.24
36.33,6.22
36.70,6.20
37.06,6.17
37.43,6.15
37.81,6.13
38.19,6.11
38.57,6.09
38.95,6.06
39.34,6.04
39.74,6.02
40.14,5.99
40.54,5.97
40.94,5.94
41.35,5.92
41.76,5.90
42.18,5.87
42.60,5.85
43.03,5.82
43.46,5.80
43.90,5.77
44.33,5.75
44.78,5.72
45.23,5.70
45.68,5.67
46.13,5.64
46.60,5.62
47.06,5.59
47.53,5.56
48.01,5.54
48.49,5.51
48.97,5.48
49.46,5.46
49.96,5.43
50.46,5.40
50.96,5.37
51.47,5.34
51.99,5.31
52.51,5.28
53.03,5.25
53.56,5.22
54.10,5.19
54.64,5.16
55.18,5.13
55.74,5.10
56.29,5.07
56.86,5.04
57.42,5.01
58.00,4.97
58.58,4.94
59.16,4.91
59.76,4.88
60.35,4.84
60.96,4.81
61.57,4.77
62.18,4.74
62.80,4.70
63.43,4.67
64.07,4.63
64.71,4.60
65.35,4.56
66.01,4.53
66.67,4.49
67.33,4.46
68.01,4.42
68.69,4.38
69.37,4.34
70.07,4.31
70.77,4.27
71.48,4.23
72.19,4.19
72.91,4.15
73.64,4.11
74.38,4.07
75.12,4.04
75.87,4.00
76.63,3.96
77.40,3.91
78.17,3.87
78.95,3.83
79.74,3.79
80.54,3.75
81.35,3.71
82.16,3.67
82.98,3.62
83.81,3.58
84.65,3.54
85.50,3.50
86.35,3.45
87.22,3.41
88.09,3.37
88.97,3.32
89.86,3.28
90.76,3.23
91.66,3.19
92.58,3.15
93.51,3.10
94.44,3.06
95.39,3.01
96.34,2.96
97.30,2.92
98.28,2.87
99.26,2.83
100.25,2.78
101.25,2.73
102.27,2.69
103.29,2.64
104.32,2.60
105.37,2.55
106.42,2.50
107.48,2.46
108.56,2.41
109.64,2.36
110.74,2.31
111.85,2.27
112.97,2.22
114.10,2.17
115.24,2.12
116.39,2.07
117.55,2.03
118.73,1.98
119.92,1.93
121.12,1.88
122.33,1.83
123.55,1.78
124.79,1.74
126.03,1.69
127.29,1.64
128.57,1.59
129.85,1.54
131.15,1.49
132.46,1.45
133.79,1.40
135.12,1.35
136.48,1.30
137.84,1.25
139.22,1.20
140.61,1.15
142.02,1.10
143.44,1.05
144.87,1.01
146.32,0.96
147.78,0.91
149.26,0.86
150.75,0.81
152.26,0.76
153.78,0.72
155.32,0.67
156.88,0.62
158.44,0.57
160.03,0.52
161.63,0.48
163.24,0.43
164.88,0.38
166.53,0.33
168.19,0.29
169.87,0.24
171.57,0.19
173.29,0.15
175.02,0.10
176.77,0.05
178.54,0.01
180.32,-0.04
182.13,-0.08
183.95,-0.13
185.79,-0.18
187.65,-0.22
189.52,-0.27
191.42,-0.31
193.33,-0.36
195.27,-0.40
197.22,-0.45
199.19,-0.49
201.18,-0.53
203.19,-0.58
205.23,-0.62
207.28,-0.66
209.35,-0.71
211.44,-0.75
213.56,-0.79
215.69,-0.83
217.85,-0.87
220.03,-0.91
222.23,-0.96
224.45,-1.00
226.70,-1.04
228.96,-1.08
231.25,-1.12
233.57,-1.15
235.90,-1.19
238.26,-1.23
240.64,-1.27
243.05,-1.31
245.48,-1.34
247.93,-1.38
250.41,-1.42
252.92,-1.45
255.45,-1.49
258.00,-1.52
260.58,-1.56
263.19,-1.59
265.82,-1.63
268.48,-1.66
271.16,-1.69
273.87,-1.72
276.61,-1.75
279.38,-1.78
282.17,-1.81
284.99,-1.84
287.84,-1.87
290.72,-1.90
293.63,-1.93
296.57,-1.96
299.53,-1.99
302.53,-2.01
305.55,-2.04
308.61,-2.06
311.69,-2.09
314.81,-2.11
317.96,-2.13
321.14,-2.16
324.35,-2.18
327.59,-2.20
330.87,-2.22
334.18,-2.24
337.52,-2.26
340.90,-2.28
344.30,-2.30
347.75,-2.32
351.23,-2.34
354.74,-2.35
358.28,-2.37
361.87,-2.38
365.49,-2.40
369.14,-2.41
372.83,-2.43
376.56,-2.44
380.33,-2.45
384.13,-2.46
387.97,-2.47
391.85,-2.48
395.77,-2.49
399.73,-2.50
403.72,-2.51
407.76,-2.51
411.84,-2.52
415.96,-2.52
420.12,-2.53
424.32,-2.53
428.56,-2.53
432.85,-2.54
437.18,-2.54
441.55,-2.54
445.96,-2.54
450.42,-2.54
454.93,-2.54
459.48,-2.53
464.07,-2.53
468.71,-2.53
473.40,-2.52
478.13,-2.52
482.91,-2.51
487.74,-2.51
492.62,-2.50
497.55,-2.49
502.52,-2.48
507.55,-2.47
512.62,-2.46
517.75,-2.45
522.93,-2.44
528.16,-2.43
533.44,-2.42
538.77,-2.40
544.16,-2.39
549.60,-2.38
555.10,-2.36
560.65,-2.35
566.25,-2.33
571.92,-2.32
577.64,-2.30
583.41,-2.28
589.25,-2.26
595.14,-2.25
601.09,-2.23
607.10,-2.21
613.17,-2.19
619.30,-2.17
625.50,-2.14
631.75,-2.12
638.07,-2.10
644.45,-2.08
650.89,-2.05
657.40,-2.03
663.98,-2.00
670.62,-1.98
677.32,-1.95
684.10,-1.92
690.94,-1.90
697.85,-1.87
704.83,-1.84
711.87,-1.81
718.99,-1.78
726.18,-1.74
733.44,-1.71
740.78,-1.68
748.19,-1.64
755.67,-1.61
763.23,-1.57
770.86,-1.53
778.57,-1.49
786.35,-1.45
794.22,-1.41
802.16,-1.37
810.18,-1.33
818.28,-1.28
826.46,-1.24
834.73,-1.19
843.08,-1.14
851.51,-1.09
860.02,-1.04
868.62,-0.98
877.31,-0.93
886.08,-0.87
894.94,-0.81
903.89,-0.74
912.93,-0.68
922.06,-0.61
931.28,-0.55
940.59,-0.48
950.00,-0.40
959.50,-0.33
969.09,-0.25
978.78,-0.17
988.57,-0.09
998.46,-0.01
1008.44,0.07
1018.53,0.16
1028.71,0.24
1039.00,0.33
1049.39,0.42
1059.88,0.51
1070.48,0.59
1081.19,0.68
1092.00,0.77
1102.92,0.85
1113.95,0.94
1125.09,1.02
1136.34,1.11
1147.70,1.19
1159.18,1.27
1170.77,1.35
1182.48,1.42
1194.30,1.50
1206.25,1.57
1218.31,1.64
1230.49,1.71
1242.80,1.77
1255.22,1.84
1267.78,1.90
1280.45,1.96
1293.26,2.01
1306.19,2.07
1319.25,2.12
1332.45,2.18
1345.77,2.23
1359.23,2.27
1372.82,2.32
1386.55,2.37
1400.41,2.41
1414.42,2.46
1428.56,2.50
1442.85,2.54
1457.28,2.59
1471.85,2.63
1486.57,2.67
1501.43,2.71
1516.45,2.74
1531.61,2.78
1546.93,2.82
1562.40,2.86
1578.02,2.90
1593.80,2.94
1609.74,2.98
1625.84,3.02
1642.10,3.06
1658.52,3.10
1675.10,3.13
1691.85,3.17
1708.77,3.21
1725.86,3.25
1743.12,3.29
1760.55,3.33
1778.15,3.37
1795.94,3.41
1813.90,3.45
1832.03,3.49
1850.36,3.53
1868.86,3.58
1887.55,3.62
1906.42,3.65
1925.49,3.69
1944.74,3.73
1964.19,3.77
1983.83,3.81
2003.67,3.85
2023.71,3.88
2043.94,3.92
2064.38,3.95
2085.03,3.98
2105.88,4.01
2126.94,4.04
2148.20,4.06
2169.69,4.09
2191.38,4.11
2213.30,4.13
2235.43,4.14
2257.78,4.16
2280.36,4.17
2303.17,4.18
2326.20,4.18
2349.46,4.18
2372.95,4.18
2396.68,4.18
2420.65,4.17
2444.86,4.16
2469.31,4.15
2494.00,4.14
2518.94,4.12
2544.13,4.10
2569.57,4.08
2595.27,4.06
2621.22,4.03
2647.43,4.01
2673.90,3.99
2700.64,3.96
2727.65,3.94
2754.93,3.92
2782.48,3.91
2810.30,3.89
2838.40,3.88
2866.79,3.87
2895.46,3.87
2924.41,3.87
2953.65,3.87
2983.19,3.87
3013.02,3.87
3043.15,3.87
3073.58,3.86
3104.32,3.85
3135.36,3.84
3166.72,3.82
3198.38,3.80
3230.37,3.78
3262.67,3.76
3295.30,3.74
3328.25,3.73
3361.53,3.73
3395.15,3.73
3429.10,3.74
3463.39,3.76
3498.03,3.79
3533.01,3.84
3568.34,3.89
3604.02,3.95
3640.06,4.02
3676.46,4.11
3713.22,4.19
3750.36,4.29
3787.86,4.39
3825.74,4.49
3864.00,4.61
3902.64,4.72
3941.66,4.84
3981.08,4.97
4020.89,5.09
4061.10,5.23
4101.71,5.36
4142.73,5.50
4184.15,5.64
4226.00,5.78
4268.26,5.92
4310.94,6.05
4354.05,6.16
4397.59,6.26
4441.56,6.35
4485.98,6.39
4530.84,6.41
4576.15,6.38
4621.91,6.32
4668.13,6.20
4714.81,6.03
4761.96,5.82
4809.58,5.58
4857.67,5.30
4906.25,4.98
4955.31,4.66
5004.87,4.32
5054.91,3.98
5105.46,3.65
5156.52,3.33
5208.08,3.04
5260.16,2.78
5312.77,2.55
5365.89,2.37
5419.55,2.24
5473.75,2.16
5528.49,2.13
5583.77,2.17
5639.61,2.23
5696.00,2.29
5752.96,2.37
5810.49,2.47
5868.60,2.69
5927.28,2.95
5986.56,3.26
6046.42,3.56
6106.89,3.82
6167.96,4.03
6229.64,4.15
6291.93,4.18
6354.85,4.10
6418.40,3.98
6482.58,3.78
6547.41,3.55
6612.88,3.30
6679.01,3.04
6745.80,2.80
6813.26,2.56
6881.39,2.35
6950.21,2.17
7019.71,2.01
7089.91,1.89
7160.81,1.79
7232.41,1.70
7304.74,1.63
7377.79,1.57
7451.56,1.51
7526.08,1.44
7601.34,1.36
7677.35,1.26
7754.13,1.14
7831.67,0.99
7909.98,0.81
7989.08,0.61
8068.98,0.37
8149.67,0.12
8231.16,-0.16
8313.47,-0.44
8396.61,-0.73
8480.57,-1.02
8565.38,-1.30
8651.03,-1.56
8737.54,-1.80
8824.92,-2.01
8913.17,-2.17
9002.30,-2.32
9092.32,-2.40
9183.25,-2.44
9275.08,-2.44
9367.83,-2.39
9461.51,-2.29
9556.12,-2.15
9651.68,-1.96
9748.20,-1.72
9845.68,-1.40
9944.14,-1.03
10043.58,-0.62
10144.02,-0.20
10245.46,0.18
10347.91,0.48
10451.39,0.67
10555.91,0.66
10661.46,0.53
10768.08,0.28
10875.76,-0.06
10984.52,-0.38
11094.36,-0.67
11205.31,-0.89
11317.36,-1.05
11430.53,-1.20
11544.84,-1.34
11660.29,-1.50
11776.89,-1.67
11894.66,-1.85
12013.60,-2.03
12133.74,-2.23
12255.08,-2.48
12377.63,-2.75
12501.41,-3.06
12626.42,-3.37
12752.68,-3.68
12880.21,-3.94
13009.01,-4.18
13139.10,-4.41
13270.49,-4.56
13403.20,-4.68
13537.23,-4.69
13672.60,-4.64
13809.33,-4.54
13947.42,-4.40
14086.90,-4.27
14227.77,-4.14
14370.04,-4.09
14513.74,-4.14
14658.88,-4.39
14805.47,-4.75
14953.52,-5.26
15103.06,-5.87
15254.09,-6.53
15406.63,-7.18
15560.70,-7.79
15716.30,-8.35
15873.47,-8.89
16032.20,-9.44
16192.52,-10.02
16354.45,-10.66
16517.99,-11.33
16683.17,-12.05
16850.01,-12.73
17018.51,-13.36
17188.69,-13.78
17360.58,-13.99
17534.18,-14.01
17709.53,-13.79
17886.62,-13.41
18065.49,-12.93
18246.14,-12.38
18428.60,-11.77
18612.89,-11.21
18799.02,-10.73
18987.01,-10.41
19176.88,-10.39
19368.65,-10.60
19562.33,-11.00
19757.96,-11.55
19955.54,-11.99
