frequency,raw
20.00,9.34
20.20,9.32
20.40,9.29
20.61,9.27
20.81,9.24
21.02,9.22
21.23,9.19
21.44,9.16
21.66,9.13
21.87,9.11
22.09,9.08
22.31,9.06
22.54,9.03
22.76,9.01
22.99,8.99
23.22,8.96
23.45,8.94
23.69,8.92
23.92,8.89
24.16,8.87
24.40,8.84
24.65,8.82
24.89,8.79
25.14,8.77
25.39,8.74
25.65,8.72
25.91,8.69
26.16,8.67
26.43,8.64
26.69,8.62
26.96,8.59
27.23,8.57
27.50,8.54
27.77,8.51
28.05,8.48
28.33,8.45
28.62,8.43
28.90,8.40
29.19,8.37
29.48,8.34
29.78,8.31
30.08,8.28
30.38,8.25
30.68,8.22
30.99,8.19
31.30,8.16
31.61,8.13
31.93,8.09
32.24,8.06
32.57,8.03
32.89,8.00
33.22,7.96
33.55,7.93
33.89,7.89
34.23,7.86
34.57,7.83
34.92,7.79
35.27,7.76
35.62,7.72
35.97,7.69
36.33,7.65
36.70,7.62
37.06,7.58
37.43,7.55
37.81,7.51
38.19,7.47
38.57,7.43
38.95,7.39
39.34,7.36
39.74,7.32
40.14,7.28
40.54,7.24
40.94,7.20
41.35,7.16
41.76,7.12
42.18,7.08
42.60,7.03
43.03,6.99
43.46,6.95
43.90,6.91
44.33,6.86
44.78,6.82
45.23,6.77
45.68,6.73
46.13,6.68
46.60,6.64
47.06,6.59
47.53,6.55
48.01,6.50
48.49,6.45
48.97,6.41
49.46,6.36
49.96,6.31
50.46,6.26
50.96,6.21
51.47,6.16
51.99,6.11
52.51,6.06
53.03,6.01
53.56,5.95
54.10,5.90
54.64,5.85
55.18,5.79
55.74,5.74
56.29,5.68
56.86,5.63
57.42,5.57
58.00,5.52
58.58,5.46
59.16,5.40
59.76,5.34
60.35,5.29
60.96,5.23
61.57,5.17
62.18,5.11
62.80,5.05
63.43,4.99
64.07,4.93
64.71,4.86
65.35,4.80
66.01,4.74
66.67,4.67
67.33,4.61
68.01,4.55
68.69,4.48
69.37,4.42
70.07,4.35
70.77,4.29
71.48,4.22
72.19,4.15
72.91,4.08
73.64,4.02
74.38,3.95
75.12,3.88
75.87,3.81
76.63,3.74
77.40,3.67
78.17,3.60
78.95,3.53
79.74,3.46
80.54,3.39
81.35,3.31
82.16,3.24
82.98,3.17
83.81,3.09
84.65,3.02
85.50,2.95
86.35,2.87
87.22,2.80
88.09,2.72
88.97,2.65
89.86,2.57
90.76,2.50
91.66,2.42
92.58,2.35
93.51,2.27
94.44,2.20
95.39,2.12
96.34,2.05
97.30,1.97
98.28,1.90
99.26,1.82
100.25,1.75
101.25,1.67
102.27,1.60
103.29,1.53
104.32,1.45
105.37,1.38
106.42,1.30
107.48,1.23
108.56,1.16
109.64,1.09
110.74,1.02
111.85,0.94
112.97,0.88
114.10,0.81
115.24,0.74
116.39,0.67
117.55,0.60
118.73,0.53
119.92,0.47
121.12,0.40
122.33,0.34
123.55,0.28
124.79,0.22
126.03,0.16
127.29,0.10
128.57,0.04
129.85,-0.02
131.15,-0.08
132.46,-0.13
133.79,-0.18
135.12,-0.23
136.48,-0.28
137.84,-0.33
139.22,-0.38
140.61,-0.43
142.02,-0.47
143.44,-0.51
144.87,-0.56
146.32,-0.59
147.78,-0.63
149.26,-0.67
150.75,-0.71
152.26,-0.74
153.78,-0.77
155.32,-0.80
156.88,-0.83
158.44,-0.86
160.03,-0.88
161.63,-0.90
163.24,-0.93
164.88,-0.95
166.53,-0.97
168.19,-0.98
169.87,-1.00
171.57,-1.02
173.29,-1.03
175.02,-1.04
176.77,-1.05
178.54,-1.06
180.32,-1.07
182.13,-1.08
183.95,-1.08
185.79,-1.09
187.65,-1.09
189.52,-1.09
191.42,-1.09
193.33,-1.09
195.27,-1.09
197.22,-1.09
199.19,-1.09
201.18,-1.09
203.19,-1.08
205.23,-1.07
207.28,-1.07
209.35,-1.06
211.44,-1.06
213.56,-1.05
215.69,-1.04
217.85,-1.03
220.03,-1.02
222.23,-1.01
224.45,-1.00
226.70,-0.99
228.96,-0.98
231.25,-0.96
233.57,-0.95
235.90,-0.94
238.26,-0.93
240.64,-0.91
243.05,-0.90
245.48,-0.89
247.93,-0.87
250.41,-0.86
252.92,-0.84
255.45,-0.83
258.00,-0.82
260.58,-0.80
263.19,-0.79
265.82,-0.77
268.48,-0.76
271.16,-0.75
273.87,-0.73
276.61,-0.72
279.38,-0.71
282.17,-0.69
284.99,-0.68
287.84,-0.66
290.72,-0.65
293.63,-0.64
296.57,-0.63
299.53,-0.61
302.53,-0.60
305.55,-0.59
308.61,-0.58
311.69,-0.57
314.81,-0.56
317.96,-0.55
321.14,-0.54
324.35,-0.53
327.59,-0.52
330.87,-0.50
334.18,-0.49
337.52,-0.48
340.90,-0.48
344.30,-0.47
347.75,-0.46
351.23,-0.45
354.74,-0.44
358.28,-0.44
361.87,-0.43
365.49,-0.42
369.14,-0.42
372.83,-0.41
376.56,-0.40
380.33,-0.40
384.13,-0.39
387.97,-0.39
391.85,-0.38
395.77,-0.38
399.73,-0.38
403.72,-0.37
407.76,-0.37
411.84,-0.37
415.96,-0.37
420.12,-0.37
424.32,-0.36
428.56,-0.36
432.85,-0.36
437.18,-0.36
441.55,-0.36
445.96,-0.36
450.42,-0.36
454.93,-0.37
459.48,-0.37
464.07,-0.37
468.71,-0.37
473.40,-0.37
478.13,-0.37
482.91,-0.38
487.74,-0.38
492.62,-0.38
497.55,-0.39
502.52,-0.39
507.55,-0.39
512.62,-0.40
517.75,-0.40
522.93,-0.40
528.16,-0.41
533.44,-0.41
538.77,-0.41
544.16,-0.42
549.60,-0.42
555.10,-0.43
560.65,-0.43
566.25,-0.44
571.92,-0.44
577.64,-0.44
583.41,-0.45
589.25,-0.46
595.14,-0.46
601.09,-0.47
607.10,-0.47
613.17,-0.48
619.30,-0.49
625.50,-0.49
631.75,-0.50
638.07,-0.50
644.45,-0.51
650.89,-0.51
657.40,-0.51
663.98,-0.52
670.62,-0.52
677.32,-0.52
684.10,-0.53
690.94,-0.53
697.85,-0.53
704.83,-0.53
711.87,-0.53
718.99,-0.53
726.18,-0.53
733.44,-0.53
740.78,-0.53
748.19,-0.53
755.67,-0.53
763.23,-0.52
770.86,-0.52
778.57,-0.52
786.35,-0.52
794.22,-0.51
802.16,-0.51
810.18,-0.50
818.28,-0.50
826.46,-0.50
834.73,-0.49
843.08,-0.48
851.51,-0.47
860.02,-0.46
868.62,-0.45
877.31,-0.44
886.08,-0.42
894.94,-0.40
903.89,-0.38
912.93,-0.36
922.06,-0.33
931.28,-0.30
940.59,-0.26
950.00,-0.23
959.50,-0.19
969.09,-0.15
978.78,-0.10
988.57,-0.06
998.46,-0.01
1008.44,0.05
1018.53,0.10
1028.71,0.16
1039.00,0.22
1049.39,0.28
1059.88,0.34
1070.48,0.41
1081.19,0.47
1092.00,0.54
1102.92,0.60
1113.95,0.67
1125.09,0.73
1136.34,0.80
1147.70,0.86
1159.18,0.93
1170.77,0.99
1182.48,1.05
1194.30,1.12
1206.25,1.18
1218.31,1.24
1230.49,1.30
1242.80,1.35
1255.22,1.41
1267.78,1.47
1280.45,1.52
1293.26,1.58
1306.19,1.63
1319.25,1.68
1332.45,1.73
1345.77,1.78
1359.23,1.83
1372.82,1.88
1386.55,1.93
1400.41,1.98
1414.42,2.03
1428.56,2.08
1442.85,2.13
1457.28,2.18
1471.85,2.23
1486.57,2.29
1501.43,2.34
1516.45,2.39
1531.61,2.45
1546.93,2.50
1562.40,2.56
1578.02,2.61
1593.80,2.67
1609.74,2.73
1625.84,2.80
1642.10,2.86
1658.52,2.93
1675.10,2.99
1691.85,3.07
1708.77,3.14
1725.86,3.21
1743.12,3.29
1760.55,3.37
1778.15,3.46
1795.94,3.54
1813.90,3.63
1832.03,3.72
1850.36,3.82
1868.86,3.92
1887.55,4.02
1906.42,4.12
1925.49,4.23
1944.74,4.34
1964.19,4.46
1983.83,4.58
2003.67,4.70
2023.71,4.83
2043.94,4.96
2064.38,5.09
2085.03,5.23
2105.88,5.37
2126.94,5.52
2148.20,5.66
2169.69,5.82
2191.38,5.97
2213.30,6.13
2235.43,6.29
2257.78,6.45
2280.36,6.61
2303.17,6.77
2326.20,6.94
2349.46,7.10
2372.95,7.27
2396.68,7.43
2420.65,7.59
2444.86,7.74
2469.31,7.89
2494.00,8.03
2518.94,8.16
2544.13,8.29
2569.57,8.40
2595.27,8.50
2621.22,8.59
2647.43,8.66
2673.90,8.71
2700.64,8.76
2727.65,8.78
2754.93,8.79
2782.48,8.77
2810.30,8.75
2838.40,8.70
2866.79,8.64
2895.46,8.57
2924.41,8.47
2953.65,8.37
2983.19,8.24
3013.02,8.10
3043.15,7.96
3073.58,7.80
3104.32,7.63
3135.36,7.45
3166.72,7.27
3198.38,7.09
3230.37,6.90
3262.67,6.70
3295.30,6.51
3328.25,6.32
3361.53,6.14
3395.15,5.95
3429.10,5.77
3463.39,5.60
3498.03,5.43
3533.01,5.27
3568.34,5.12
3604.02,4.98
3640.06,4.84
3676.46,4.72
3713.22,4.60
3750.36,4.50
3787.86,4.42
3825.74,4.34
3864.00,4.27
3902.64,4.23
3941.66,4.20
3981.08,4.18
4020.89,4.18
4061.10,4.19
4101.71,4.22
4142.73,4.26
4184.15,4.30
4226.00,4.37
4268.26,4.44
4310.94,4.52
4354.05,4.61
4397.59,4.71
4441.56,4.81
4485.98,4.93
4530.84,5.06
4576.15,5.19
4621.91,5.34
4668.13,5.50
4714.81,5.67
4761.96,5.85
4809.58,6.05
4857.67,6.26
4906.25,6.48
4955.31,6.70
5004.87,6.93
5054.91,7.16
5105.46,7.37
5156.52,7.58
5208.08,7.76
5260.16,7.90
5312.77,8.00
5365.89,8.06
5419.55,8.05
5473.75,7.99
5528.49,7.87
5583.77,7.68
5639.61,7.44
5696.00,7.18
5752.96,6.87
5810.49,6.55
5868.60,6.23
5927.28,5.90
5986.56,5.58
6046.42,5.28
6106.89,5.00
6167.96,4.73
6229.64,4.49
6291.93,4.27
6354.85,4.08
6418.40,3.90
6482.58,3.74
6547.41,3.60
6612.88,3.46
6679.01,3.33
6745.80,3.21
6813.26,3.09
6881.39,2.98
6950.21,2.88
7019.71,2.79
7089.91,2.71
7160.81,2.65
7232.41,2.60
7304.74,2.57
7377.79,2.56
7451.56,2.57
7526.08,2.60
7601.34,2.65
7677.35,2.74
7754.13,2.83
7831.67,2.96
7909.98,3.10
7989.08,3.27
8068.98,3.44
8149.67,3.63
8231.16,3.81
8313.47,3.97
8396.61,4.13
8480.57,4.24
8565.38,4.30
8651.03,4.31
8737.54,4.27
8824.92,4.16
8913.17,3.97
9002.30,3.76
9092.32,3.47
9183.25,3.16
9275.08,2.83
9367.83,2.48
9461.51,2.14
9556.12,1.81
9651.68,1.50
9748.20,1.21
9845.68,0.97
9944.14,0.77
10043.58,0.61
10144.02,0.49
10245.46,0.44
10347.91,0.43
10451.39,0.47
10555.91,0.57
10661.46,0.72
10768.08,0.92
10875.76,1.19
10984.52,1.50
11094.36,1.81
11205.31,2.10
11317.36,2.25
11430.53,2.31
11544.84,2.15
11660.29,1.83
11776.89,1.46
11894.66,1.06
12013.60,0.66
12133.74,0.41
12255.08,0.35
12377.63,0.43
12501.41,0.62
12626.42,0.89
12752.68,1.15
12880.21,1.30
13009.01,1.39
13139.10,1.49
13270.49,1.39
13403.20,1.24
13537.23,0.99
13672.60,0.72
13809.33,0.42
13947.42,0.09
14086.90,-0.25
14227.77,-0.61
14370.04,-1.00
14513.74,-1.44
14658.88,-1.98
14805.47,-2.56
14953.52,-3.24
15103.06,-3.99
15254.09,-4.79
15406.63,-5.65
15560.70,-6.51
15716.30,-7.37
15873.47,-8.18
16032.20,-8.95
16192.52,-9.61
16354.45,-10.16
16517.99,-10.67
16683.17,-11.21
16850.01,-11.90
17018.51,-12.67
17188.69,-13.41
17360.58,-13.95
17534.18,-14.34
17709.53,-14.56
17886.62,-14.67
18065.49,-14.65
18246.14,-14.46
18428.60,-13.87
18612.89,-13.09
18799.02,-12.13
18987.01,-10.98
19176.88,-9.81
19368.65,-8.74
19562.33,-7.77
19757.96,-6.93
19955.54,-6.44
