frequency,raw
20.00,7.41
20.20,7.39
20.40,7.37
20.61,7.36
20.81,7.33
21.02,7.31
21.23,7.29
21.44,7.26
21.66,7.24
21.87,7.22
22.09,7.20
22.31,7.18
22.54,7.16
22.76,7.13
22.99,7.11
23.22,7.09
23.45,7.07
23.69,7.05
23.92,7.03
24.16,7.01
24.40,6.99
24.65,6.97
24.89,6.95
25.14,6.93
25.39,6.91
25.65,6.89
25.91,6.87
26.16,6.85
26.43,6.83
26.69,6.81
26.96,6.80
27.23,6.78
27.50,6.76
27.77,6.74
28.05,6.72
28.33,6.70
28.62,6.68
28.90,6.66
29.19,6.63
29.48,6.61
29.78,6.59
30.08,6.56
30.38,6.54
30.68,6.51
30.99,6.49
31.30,6.46
31.61,6.44
31.93,6.41
32.24,6.39
32.57,6.36
32.89,6.33
33.22,6.31
33.55,6.28
33.89,6.25
34.23,6.23
34.57,6.20
34.92,6.18
35.27,6.15
35.62,6.13
35.97,6.10
36.33,6.08
36.70,6.05
37.06,6.03
37.43,6.00
37.81,5.98
38.19,5.95
38.57,5.92
38.95,5.90
39.34,5.87
39.74,5.84
40.14,5.81
40.54,5.78
40.94,5.75
41.35,5.72
41.76,5.69
42.18,5.66
42.60,5.63
43.03,5.60
43.46,5.57
43.90,5.54
44.33,5.51
44.78,5.48
45.23,5.45
45.68,5.42
46.13,5.39
46.60,5.36
47.06,5.32
47.53,5.29
48.01,5.26
48.49,5.23
48.97,5.20
49.46,5.16
49.96,5.13
50.46,5.10
50.96,5.07
51.47,5.04
51.99,5.01
52.51,4.98
53.03,4.95
53.56,4.92
54.10,4.89
54.64,4.86
55.18,4.83
55.74,4.80
56.29,4.77
56.86,4.74
57.42,4.71
58.00,4.68
58.58,4.65
59.16,4.61
59.76,4.58
60.35,4.55
60.96,4.52
61.57,4.49
62.18,4.46
62.80,4.43
63.43,4.39
64.07,4.36
64.71,4.32
65.35,4.29
66.01,4.25
66.67,4.21
67.33,4.18
68.01,4.14
68.69,4.11
69.37,4.07
70.07,4.04
70.77,4.00
71.48,3.96
72.19,3.93
72.91,3.89
73.64,3.86
74.38,3.82
75.12,3.78
75.87,3.75
76.63,3.71
77.40,3.68
78.17,3.64
78.95,3.60
79.74,3.57
80.54,3.53
81.35,3.50
82.16,3.46
82.98,3.42
83.81,3.39
84.65,3.35
85.50,3.32
86.35,3.28
87.22,3.25
88.09,3.21
88.97,3.17
89.86,3.14
90.76,3.10
91.66,3.07
92.58,3.03
93.51,3.00
94.44,2.96
95.39,2.93
96.34,2.89
97.30,2.85
98.28,2.82
99.26,2.78
100.25,2.74
101.25,2.71
102.27,2.67
103.29,2.63
104.32,2.60
105.37,2.56
106.42,2.52
107.48,2.49
108.56,2.45
109.64,2.41
110.74,2.38
111.85,2.34
112.97,2.30
114.10,2.27
115.24,2.23
116.39,2.19
117.55,2.16
118.73,2.12
119.92,2.08
121.12,2.05
122.33,2.01
123.55,1.97
124.79,1.94
126.03,1.90
127.29,1.86
128.57,1.82
129.85,1.79
131.15,1.75
132.46,1.71
133.79,1.68
135.12,1.64
136.48,1.60
137.84,1.56
139.22,1.53
140.61,1.49
142.02,1.45
143.44,1.41
144.87,1.38
146.32,1.34
147.78,1.30
149.26,1.27
150.75,1.23
152.26,1.20
153.78,1.16
155.32,1.12
156.88,1.09
158.44,1.05
160.03,1.02
161.63,0.98
163.24,0.95
164.88,0.92
166.53,0.89
168.19,0.86
169.87,0.83
171.57,0.79
173.29,0.76
175.02,0.73
176.77,0.70
178.54,0.67
180.32,0.64
182.13,0.61
183.95,0.58
185.79,0.55
187.65,0.52
189.52,0.49
191.42,0.46
193.33,0.43
195.27,0.40
197.22,0.37
199.19,0.34
201.18,0.31
203.19,0.28
205.23,0.25
207.28,0.21
209.35,0.18
211.44,0.15
213.56,0.12
215.69,0.09
217.85,0.06
220.03,0.03
222.23,0.00
224.45,-0.03
226.70,-0.06
228.96,-0.09
231.25,-0.12
233.57,-0.15
235.90,-0.17
238.26,-0.20
240.64,-0.23
243.05,-0.26
245.48,-0.29
247.93,-0.31
250.41,-0.34
252.92,-0.37
255.45,-0.39
258.00,-0.42
260.58,-0.45
263.19,-0.47
265.82,-0.50
268.48,-0.52
271.16,-0.55
273.87,-0.57
276.61,-0.60
279.38,-0.62
282.17,-0.64
284.99,-0.67
287.84,-0.69
290.72,-0.71
293.63,-0.74
296.57,-0.76
299.53,-0.78
302.53,-0.81
305.55,-0.83
308.61,-0.85
311.69,-0.87
314.81,-0.89
317.96,-0.91
321.14,-0.93
324.35,-0.95
327.59,-0.97
330.87,-0.99
334.18,-1.00
337.52,-1.02
340.90,-1.04
344.30,-1.06
347.75,-1.07
351.23,-1.09
354.74,-1.11
358.28,-1.13
361.87,-1.14
365.49,-1.16
369.14,-1.17
372.83,-1.19
376.56,-1.20
380.33,-1.22
384.13,-1.24
387.97,-1.25
391.85,-1.27
395.77,-1.28
399.73,-1.30
403.72,-1.31
407.76,-1.32
411.84,-1.34
415.96,-1.35
420.12,-1.37
424.32,-1.38
428.56,-1.39
432.85,-1.40
437.18,-1.42
441.55,-1.43
445.96,-1.44
450.42,-1.46
454.93,-1.47
459.48,-1.48
464.07,-1.49
468.71,-1.51
473.40,-1.52
478.13,-1.53
482.91,-1.54
487.74,-1.55
492.62,-1.56
497.55,-1.58
502.52,-1.59
507.55,-1.60
512.62,-1.61
517.75,-1.62
522.93,-1.63
528.16,-1.64
533.44,-1.65
538.77,-1.66
544.16,-1.68
549.60,-1.69
555.10,-1.70
560.65,-1.71
566.25,-1.72
571.92,-1.74
577.64,-1.75
583.41,-1.76
589.25,-1.78
595.14,-1.79
601.09,-1.80
607.10,-1.82
613.17,-1.83
619.30,-1.85
625.50,-1.86
631.75,-1.88
638.07,-1.89
644.45,-1.90
650.89,-1.91
657.40,-1.92
663.98,-1.93
670.62,-1.93
677.32,-1.94
684.10,-1.94
690.94,-1.94
697.85,-1.93
704.83,-1.93
711.87,-1.91
718.99,-1.90
726.18,-1.87
733.44,-1.85
740.78,-1.82
748.19,-1.78
755.67,-1.75
763.23,-1.71
770.86,-1.66
778.57,-1.62
786.35,-1.57
794.22,-1.51
802.16,-1.46
810.18,-1.41
818.28,-1.35
826.46,-1.30
834.73,-1.24
843.08,-1.19
851.51,-1.13
860.02,-1.07
868.62,-1.01
877.31,-0.95
886.08,-0.89
894.94,-0.83
903.89,-0.76
912.93,-0.69
922.06,-0.62
931.28,-0.55
940.59,-0.48
950.00,-0.40
959.50,-0.33
969.09,-0.25
978.78,-0.17
988.57,-0.09
998.46,-0.01
1008.44,0.07
1018.53,0.15
1028.71,0.23
1039.00,0.31
1049.39,0.39
1059.88,0.47
1070.48,0.55
1081.19,0.63
1092.00,0.71
1102.92,0.79
1113.95,0.87
1125.09,0.95
1136.34,1.03
1147.70,1.11
1159.18,1.19
1170.77,1.27
1182.48,1.35
1194.30,1.42
1206.25,1.50
1218.31,1.57
1230.49,1.64
1242.80,1.72
1255.22,1.79
1267.78,1.86
1280.45,1.93
1293.26,2.01
1306.19,2.08
1319.25,2.15
1332.45,2.22
1345.77,2.29
1359.23,2.36
1372.82,2.42
1386.55,2.49
1400.41,2.56
1414.42,2.62
1428.56,2.69
1442.85,2.75
1457.28,2.82
1471.85,2.89
1486.57,2.95
1501.43,3.02
1516.45,3.09
1531.61,3.16
1546.93,3.23
1562.40,3.30
1578.02,3.37
1593.80,3.45
1609.74,3.52
1625.84,3.61
1642.10,3.69
1658.52,3.78
1675.10,3.86
1691.85,3.95
1708.77,4.05
1725.86,4.14
1743.12,4.23
1760.55,4.33
1778.15,4.43
1795.94,4.53
1813.90,4.63
1832.03,4.73
1850.36,4.84
1868.86,4.95
1887.55,5.05
1906.42,5.16
1925.49,5.27
1944.74,5.39
1964.19,5.50
1983.83,5.61
2003.67,5.72
2023.71,5.84
2043.94,5.95
2064.38,6.06
2085.03,6.17
2105.88,6.27
2126.94,6.38
2148.20,6.48
2169.69,6.59
2191.38,6.68
2213.30,6.78
2235.43,6.87
2257.78,6.95
2280.36,7.03
2303.17,7.10
2326.20,7.17
2349.46,7.23
2372.95,7.28
2396.68,7.33
2420.65,7.36
2444.86,7.38
2469.31,7.40
2494.00,7.41
2518.94,7.41
2544.13,7.41
2569.57,7.39
2595.27,7.37
2621.22,7.34
2647.43,7.30
2673.90,7.25
2700.64,7.20
2727.65,7.13
2754.93,7.06
2782.48,6.98
2810.30,6.90
2838.40,6.82
2866.79,6.73
2895.46,6.64
2924.41,6.54
2953.65,6.45
2983.19,6.36
3013.02,6.27
3043.15,6.17
3073.58,6.09
3104.32,6.00
3135.36,5.92
3166.72,5.85
3198.38,5.78
3230.37,5.73
3262.67,5.67
3295.30,5.63
3328.25,5.59
3361.53,5.55
3395.15,5.53
3429.10,5.51
3463.39,5.50
3498.03,5.50
3533.01,5.51
3568.34,5.52
3604.02,5.55
3640.06,5.58
3676.46,5.63
3713.22,5.68
3750.36,5.73
3787.86,5.81
3825.74,5.88
3864.00,5.96
3902.64,6.05
3941.66,6.15
3981.08,6.24
4020.89,6.33
4061.10,6.41
4101.71,6.49
4142.73,6.55
4184.15,6.61
4226.00,6.65
4268.26,6.67
4310.94,6.68
4354.05,6.65
4397.59,6.59
4441.56,6.51
4485.98,6.39
4530.84,6.23
4576.15,6.03
4621.91,5.81
4668.13,5.53
4714.81,5.21
4761.96,4.87
4809.58,4.50
4857.67,4.11
4906.25,3.71
4955.31,3.31
5004.87,2.90
5054.91,2.51
5105.46,2.14
5156.52,1.79
5208.08,1.50
5260.16,1.26
5312.77,1.06
5365.89,0.93
5419.55,0.87
5473.75,0.87
5528.49,0.92
5583.77,1.04
5639.61,1.20
5696.00,1.37
5752.96,1.56
5810.49,1.75
5868.60,1.92
5927.28,2.06
5986.56,2.18
6046.42,2.24
6106.89,2.28
6167.96,2.27
6229.64,2.23
6291.93,2.18
6354.85,2.11
6418.40,2.05
6482.58,1.98
6547.41,1.93
6612.88,1.89
6679.01,1.87
6745.80,1.87
6813.26,1.90
6881.39,1.97
6950.21,2.07
7019.71,2.21
7089.91,2.38
7160.81,2.61
7232.41,2.87
7304.74,3.17
7377.79,3.52
7451.56,3.90
7526.08,4.32
7601.34,4.77
7677.35,5.23
7754.13,5.68
7831.67,6.10
7909.98,6.46
7989.08,6.74
8068.98,6.86
8149.67,6.87
8231.16,6.73
8313.47,6.43
8396.61,6.06
8480.57,5.58
8565.38,5.05
8651.03,4.52
8737.54,3.99
8824.92,3.50
8913.17,3.08
9002.30,2.67
9092.32,2.36
9183.25,2.11
9275.08,1.91
9367.83,1.78
9461.51,1.70
9556.12,1.65
9651.68,1.62
9748.20,1.58
9845.68,1.51
9944.14,1.39
10043.58,1.19
10144.02,0.92
10245.46,0.55
10347.91,0.17
10451.39,-0.24
10555.91,-0.59
10661.46,-0.89
10768.08,-1.11
10875.76,-1.22
10984.52,-1.22
11094.36,-1.15
11205.31,-0.99
11317.36,-0.73
11430.53,-0.43
11544.84,-0.07
11660.29,0.33
11776.89,0.73
11894.66,1.11
12013.60,1.49
12133.74,1.82
12255.08,2.10
12377.63,2.33
12501.41,2.51
12626.42,2.63
12752.68,2.73
12880.21,2.82
13009.01,2.91
13139.10,3.00
13270.49,3.07
13403.20,3.13
13537.23,3.07
13672.60,2.89
13809.33,2.58
13947.42,2.03
14086.90,1.42
14227.77,0.78
14370.04,0.18
14513.74,-0.39
14658.88,-1.08
14805.47,-1.87
14953.52,-2.84
15103.06,-3.93
15254.09,-5.08
15406.63,-6.28
15560.70,-7.45
15716.30,-8.57
15873.47,-9.54
16032.20,-10.43
16192.52,-11.11
16354.45,-11.67
16517.99,-12.13
16683.17,-12.46
16850.01,-12.70
17018.51,-12.86
17188.69,-12.85
17360.58,-12.71
17534.18,-12.44
17709.53,-11.99
17886.62,-11.39
18065.49,-10.70
18246.14,-9.91
18428.60,-8.76
18612.89,-7.29
18799.02,-5.65
18987.01,-4.13
19176.88,-3.37
19368.65,-3.26
19562.33,-3.75
19757.96,-4.69
19955.54,-5.57
