frequency,raw
20.00,4.54
20.20,4.59
20.40,4.63
20.61,4.68
20.81,4.73
21.02,4.78
21.23,4.83
21.44,4.87
21.66,4.90
21.87,4.92
22.09,4.92
22.31,4.92
22.54,4.92
22.76,4.91
22.99,4.91
23.22,4.92
23.45,4.93
23.69,4.94
23.92,4.96
24.16,4.97
24.40,4.98
24.65,4.99
24.89,5.00
25.14,5.00
25.39,5.02
25.65,5.04
25.91,5.06
26.16,5.08
26.43,5.11
26.69,5.14
26.96,5.16
27.23,5.19
27.50,5.21
27.77,5.23
28.05,5.25
28.33,5.27
28.62,5.28
28.90,5.29
29.19,5.30
29.48,5.31
29.78,5.31
30.08,5.31
30.38,5.31
30.68,5.32
30.99,5.33
31.30,5.35
31.61,5.37
31.93,5.39
32.24,5.40
32.57,5.42
32.89,5.43
33.22,5.44
33.55,5.45
33.89,5.46
34.23,5.47
34.57,5.48
34.92,5.48
35.27,5.49
35.62,5.50
35.97,5.51
36.33,5.52
36.70,5.53
37.06,5.55
37.43,5.56
37.81,5.57
38.19,5.57
38.57,5.58
38.95,5.58
39.34,5.58
39.74,5.58
40.14,5.58
40.54,5.58
40.94,5.58
41.35,5.58
41.76,5.57
42.18,5.58
42.60,5.59
43.03,5.61
43.46,5.64
43.90,5.66
44.33,5.68
44.78,5.68
45.23,5.66
45.68,5.64
46.13,5.61
46.60,5.60
47.06,5.59
47.53,5.60
48.01,5.62
48.49,5.63
48.97,5.64
49.46,5.64
49.96,5.63
50.46,5.61
50.96,5.59
51.47,5.58
51.99,5.59
52.51,5.60
53.03,5.61
53.56,5.62
54.10,5.63
54.64,5.64
55.18,5.65
55.74,5.65
56.29,5.65
56.86,5.64
57.42,5.63
58.00,5.62
58.58,5.61
59.16,5.60
59.76,5.60
60.35,5.59
60.96,5.58
61.57,5.58
62.18,5.58
62.80,5.57
63.43,5.56
64.07,5.55
64.71,5.55
65.35,5.55
66.01,5.54
66.67,5.54
67.33,5.53
68.01,5.52
68.69,5.51
69.37,5.50
70.07,5.50
70.77,5.49
71.48,5.48
72.19,5.48
72.91,5.47
73.64,5.47
74.38,5.46
75.12,5.45
75.87,5.44
76.63,5.43
77.40,5.42
78.17,5.42
78.95,5.41
79.74,5.39
80.54,5.38
81.35,5.36
82.16,5.35
82.98,5.34
83.81,5.33
84.65,5.31
85.50,5.30
86.35,5.29
87.22,5.28
88.09,5.27
88.97,5.26
89.86,5.25
90.76,5.24
91.66,5.22
92.58,5.20
93.51,5.19
94.44,5.17
95.39,5.15
96.34,5.14
97.30,5.12
98.28,5.11
99.26,5.09
100.25,5.08
101.25,5.07
102.27,5.06
103.29,5.04
104.32,5.03
105.37,5.01
106.42,5.00
107.48,4.98
108.56,4.97
109.64,4.95
110.74,4.93
111.85,4.91
112.97,4.89
114.10,4.87
115.24,4.84
116.39,4.82
117.55,4.79
118.73,4.77
119.92,4.75
121.12,4.73
122.33,4.72
123.55,4.70
124.79,4.68
126.03,4.66
127.29,4.64
128.57,4.61
129.85,4.59
131.15,4.56
132.46,4.54
133.79,4.52
135.12,4.50
136.48,4.47
137.84,4.45
139.22,4.42
140.61,4.39
142.02,4.36
143.44,4.34
144.87,4.31
146.32,4.29
147.78,4.26
149.26,4.23
150.75,4.20
152.26,4.17
153.78,4.14
155.32,4.12
156.88,4.09
158.44,4.06
160.03,4.03
161.63,4.01
163.24,3.98
164.88,3.96
166.53,3.93
168.19,3.91
169.87,3.88
171.57,3.85
173.29,3.83
175.02,3.80
176.77,3.77
178.54,3.74
180.32,3.71
182.13,3.68
183.95,3.65
185.79,3.62
187.65,3.58
189.52,3.55
191.42,3.52
193.33,3.49
195.27,3.46
197.22,3.43
199.19,3.40
201.18,3.37
203.19,3.34
205.23,3.30
207.28,3.27
209.35,3.24
211.44,3.20
213.56,3.17
215.69,3.13
217.85,3.09
220.03,3.05
222.23,3.02
224.45,2.98
226.70,2.94
228.96,2.91
231.25,2.87
233.57,2.84
235.90,2.80
238.26,2.76
240.64,2.72
243.05,2.68
245.48,2.65
247.93,2.61
250.41,2.57
252.92,2.53
255.45,2.49
258.00,2.45
260.58,2.42
263.19,2.38
265.82,2.34
268.48,2.30
271.16,2.26
273.87,2.23
276.61,2.19
279.38,2.14
282.17,2.10
284.99,2.06
287.84,2.02
290.72,1.98
293.63,1.94
296.57,1.90
299.53,1.86
302.53,1.82
305.55,1.78
308.61,1.74
311.69,1.70
314.81,1.66
317.96,1.62
321.14,1.58
324.35,1.54
327.59,1.50
330.87,1.46
334.18,1.43
337.52,1.39
340.90,1.35
344.30,1.31
347.75,1.27
351.23,1.24
354.74,1.20
358.28,1.16
361.87,1.12
365.49,1.08
369.14,1.04
372.83,1.00
376.56,0.97
380.33,0.93
384.13,0.89
387.97,0.85
391.85,0.82
395.77,0.78
399.73,0.74
403.72,0.70
407.76,0.66
411.84,0.62
415.96,0.58
420.12,0.54
424.32,0.50
428.56,0.46
432.85,0.42
437.18,0.38
441.55,0.34
445.96,0.30
450.42,0.27
454.93,0.23
459.48,0.20
464.07,0.17
468.71,0.13
473.40,0.10
478.13,0.06
482.91,0.02
487.74,-0.01
492.62,-0.05
497.55,-0.08
502.52,-0.12
507.55,-0.15
512.62,-0.18
517.75,-0.22
522.93,-0.25
528.16,-0.28
533.44,-0.32
538.77,-0.35
544.16,-0.39
549.60,-0.42
555.10,-0.45
560.65,-0.48
566.25,-0.50
571.92,-0.53
577.64,-0.56
583.41,-0.58
589.25,-0.61
595.14,-0.63
601.09,-0.66
607.10,-0.68
613.17,-0.71
619.30,-0.73
625.50,-0.76
631.75,-0.78
638.07,-0.81
644.45,-0.83
650.89,-0.85
657.40,-0.87
663.98,-0.88
670.62,-0.90
677.32,-0.91
684.10,-0.93
690.94,-0.94
697.85,-0.96
704.83,-0.97
711.87,-0.98
718.99,-0.99
726.18,-0.99
733.44,-1.00
740.78,-1.00
748.19,-1.00
755.67,-1.00
763.23,-0.99
770.86,-0.99
778.57,-0.99
786.35,-0.98
794.22,-0.97
802.16,-0.96
810.18,-0.95
818.28,-0.94
826.46,-0.92
834.73,-0.90
843.08,-0.88
851.51,-0.86
860.02,-0.83
868.62,-0.80
877.31,-0.77
886.08,-0.73
894.94,-0.69
903.89,-0.65
912.93,-0.60
922.06,-0.55
931.28,-0.49
940.59,-0.43
950.00,-0.37
959.50,-0.30
969.09,-0.23
978.78,-0.16
988.57,-0.09
998.46,-0.01
1008.44,0.07
1018.53,0.15
1028.71,0.23
1039.00,0.32
1049.39,0.41
1059.88,0.51
1070.48,0.60
1081.19,0.70
1092.00,0.80
1102.92,0.91
1113.95,1.01
1125.09,1.12
1136.34,1.23
1147.70,1.34
1159.18,1.45
1170.77,1.55
1182.48,1.66
1194.30,1.77
1206.25,1.88
1218.31,1.98
1230.49,2.09
1242.80,2.20
1255.22,2.31
1267.78,2.42
1280.45,2.52
1293.26,2.63
1306.19,2.74
1319.25,2.84
1332.45,2.94
1345.77,3.04
1359.23,3.15
1372.82,3.25
1386.55,3.35
1400.41,3.45
1414.42,3.55
1428.56,3.66
1442.85,3.76
1457.28,3.87
1471.85,3.97
1486.57,4.08
1501.43,4.18
1516.45,4.29
1531.61,4.40
1546.93,4.51
1562.40,4.63
1578.02,4.74
1593.80,4.87
1609.74,4.99
1625.84,5.12
1642.10,5.25
1658.52,5.39
1675.10,5.52
1691.85,5.67
1708.77,5.81
1725.86,5.95
1743.12,6.10
1760.55,6.25
1778.15,6.41
1795.94,6.56
1813.90,6.72
1832.03,6.88
1850.36,7.04
1868.86,7.21
1887.55,7.37
1906.42,7.54
1925.49,7.71
1944.74,7.88
1964.19,8.05
1983.83,8.22
2003.67,8.39
2023.71,8.56
2043.94,8.73
2064.38,8.89
2085.03,9.05
2105.88,9.21
2126.94,9.36
2148.20,9.51
2169.69,9.65
2191.38,9.79
2213.30,9.92
2235.43,10.04
2257.78,10.15
2280.36,10.25
2303.17,10.35
2326.20,10.42
2349.46,10.49
2372.95,10.54
2396.68,10.59
2420.65,10.62
2444.86,10.63
2469.31,10.64
2494.00,10.64
2518.94,10.62
2544.13,10.60
2569.57,10.57
2595.27,10.52
2621.22,10.48
2647.43,10.42
2673.90,10.35
2700.64,10.29
2727.65,10.21
2754.93,10.13
2782.48,10.05
2810.30,9.97
2838.40,9.89
2866.79,9.81
2895.46,9.73
2924.41,9.65
2953.65,9.57
2983.19,9.49
3013.02,9.42
3043.15,9.36
3073.58,9.29
3104.32,9.24
3135.36,9.19
3166.72,9.15
3198.38,9.12
3230.37,9.10
3262.67,9.08
3295.30,9.07
3328.25,9.08
3361.53,9.08
3395.15,9.10
3429.10,9.13
3463.39,9.17
3498.03,9.21
3533.01,9.27
3568.34,9.34
3604.02,9.41
3640.06,9.50
3676.46,9.60
3713.22,9.70
3750.36,9.82
3787.86,9.95
3825.74,10.08
3864.00,10.22
3902.64,10.37
3941.66,10.53
3981.08,10.68
4020.89,10.83
4061.10,10.99
4101.71,11.13
4142.73,11.27
4184.15,11.39
4226.00,11.50
4268.26,11.59
4310.94,11.66
4354.05,11.69
4397.59,11.68
4441.56,11.66
4485.98,11.58
4530.84,11.47
4576.15,11.31
4621.91,11.12
4668.13,10.88
4714.81,10.61
4761.96,10.31
4809.58,9.99
4857.67,9.64
4906.25,9.27
4955.31,8.90
5004.87,8.51
5054.91,8.11
5105.46,7.72
5156.52,7.33
5208.08,6.94
5260.16,6.56
5312.77,6.19
5365.89,5.83
5419.55,5.49
5473.75,5.16
5528.49,4.84
5583.77,4.54
5639.61,4.25
5696.00,3.98
5752.96,3.73
5810.49,3.49
5868.60,3.27
5927.28,3.07
5986.56,2.89
6046.42,2.74
6106.89,2.60
6167.96,2.49
6229.64,2.40
6291.93,2.34
6354.85,2.31
6418.40,2.30
6482.58,2.32
6547.41,2.37
6612.88,2.44
6679.01,2.55
6745.80,2.69
6813.26,2.85
6881.39,3.05
6950.21,3.29
7019.71,3.57
7089.91,3.88
7160.81,4.24
7232.41,4.63
7304.74,5.05
7377.79,5.51
7451.56,5.99
7526.08,6.48
7601.34,6.96
7677.35,7.41
7754.13,7.85
7831.67,8.18
7909.98,8.45
7989.08,8.62
8068.98,8.65
8149.67,8.58
8231.16,8.39
8313.47,8.09
8396.61,7.72
8480.57,7.29
8565.38,6.81
8651.03,6.34
8737.54,5.86
8824.92,5.42
8913.17,5.04
9002.30,4.67
9092.32,4.40
9183.25,4.19
9275.08,4.05
9367.83,3.99
9461.51,4.03
9556.12,4.14
9651.68,4.34
9748.20,4.61
9845.68,4.97
9944.14,5.35
10043.58,5.73
10144.02,6.09
10245.46,6.29
10347.91,6.36
10451.39,6.26
10555.91,5.86
10661.46,5.26
10768.08,4.49
10875.76,3.50
10984.52,2.40
11094.36,1.25
11205.31,0.06
11317.36,-1.10
11430.53,-2.23
11544.84,-3.27
11660.29,-4.24
11776.89,-5.17
11894.66,-5.94
12013.60,-6.69
12133.74,-7.37
12255.08,-7.95
12377.63,-8.47
12501.41,-8.94
12626.42,-9.34
12752.68,-9.69
12880.21,-9.96
13009.01,-10.19
13139.10,-10.42
13270.49,-10.53
13403.20,-10.61
13537.23,-10.59
13672.60,-10.53
13809.33,-10.42
13947.42,-10.24
14086.90,-9.99
14227.77,-9.71
14370.04,-9.40
14513.74,-9.06
14658.88,-8.73
14805.47,-8.43
14953.52,-8.18
15103.06,-8.06
15254.09,-8.01
15406.63,-8.25
15560.70,-8.64
15716.30,-9.26
15873.47,-9.96
16032.20,-10.59
16192.52,-10.83
16354.45,-10.82
16517.99,-10.67
16683.17,-10.50
16850.01,-10.33
17018.51,-10.16
17188.69,-9.98
17360.58,-9.80
17534.18,-9.63
17709.53,-9.50
17886.62,-9.49
18065.49,-9.61
18246.14,-9.88
18428.60,-10.46
18612.89,-11.26
18799.02,-12.29
18987.01,-13.59
19176.88,-15.19
19368.65,-16.96
19562.33,-18.84
19757.96,-20.73
19955.54,-22.08
