frequency,raw
20.00,13.91
20.20,13.89
20.40,13.87
20.61,13.85
20.81,13.82
21.02,13.80
21.23,13.77
21.44,13.75
21.66,13.73
21.87,13.70
22.09,13.68
22.31,13.66
22.54,13.63
22.76,13.60
22.99,13.58
23.22,13.55
23.45,13.52
23.69,13.49
23.92,13.46
24.16,13.43
24.40,13.41
24.65,13.38
24.89,13.35
25.14,13.32
25.39,13.30
25.65,13.27
25.91,13.24
26.16,13.22
26.43,13.19
26.69,13.17
26.96,13.15
27.23,13.12
27.50,13.10
27.77,13.07
28.05,13.04
28.33,13.01
28.62,12.98
28.90,12.95
29.19,12.92
29.48,12.89
29.78,12.86
30.08,12.83
30.38,12.80
30.68,12.76
30.99,12.72
31.30,12.68
31.61,12.65
31.93,12.61
32.24,12.57
32.57,12.54
32.89,12.51
33.22,12.47
33.55,12.44
33.89,12.40
34.23,12.36
34.57,12.33
34.92,12.29
35.27,12.25
35.62,12.21
35.97,12.18
36.33,12.14
36.70,12.10
37.06,12.07
37.43,12.03
37.81,12.00
38.19,11.96
38.57,11.92
38.95,11.88
39.34,11.84
39.74,11.80
40.14,11.76
40.54,11.72
40.94,11.67
41.35,11.63
41.76,11.59
42.18,11.54
42.60,11.50
43.03,11.46
43.46,11.41
43.90,11.37
44.33,11.32
44.78,11.28
45.23,11.24
45.68,11.19
46.13,11.15
46.60,11.11
47.06,11.06
47.53,11.02
48.01,10.97
48.49,10.93
48.97,10.89
49.46,10.84
49.96,10.79
50.46,10.74
50.96,10.69
51.47,10.65
51.99,10.60
52.51,10.56
53.03,10.52
53.56,10.47
54.10,10.42
54.64,10.37
55.18,10.33
55.74,10.28
56.29,10.24
56.86,10.20
57.42,10.15
58.00,10.11
58.58,10.06
59.16,10.02
59.76,9.97
60.35,9.93
60.96,9.89
61.57,9.84
62.18,9.79
62.80,9.74
63.43,9.69
64.07,9.64
64.71,9.59
65.35,9.54
66.01,9.49
66.67,9.44
67.33,9.39
68.01,9.34
68.69,9.29
69.37,9.24
70.07,9.19
70.77,9.14
71.48,9.09
72.19,9.04
72.91,8.99
73.64,8.93
74.38,8.88
75.12,8.82
75.87,8.77
76.63,8.72
77.40,8.67
78.17,8.62
78.95,8.56
79.74,8.51
80.54,8.46
81.35,8.41
82.16,8.36
82.98,8.30
83.81,8.25
84.65,8.20
85.50,8.14
86.35,8.09
87.22,8.03
88.09,7.98
88.97,7.93
89.86,7.88
90.76,7.83
91.66,7.78
92.58,7.72
93.51,7.67
94.44,7.61
95.39,7.56
96.34,7.51
97.30,7.46
98.28,7.41
99.26,7.35
100.25,7.30
101.25,7.24
102.27,7.19
103.29,7.13
104.32,7.07
105.37,7.02
106.42,6.97
107.48,6.91
108.56,6.86
109.64,6.80
110.74,6.74
111.85,6.69
112.97,6.63
114.10,6.58
115.24,6.52
116.39,6.46
117.55,6.40
118.73,6.35
119.92,6.29
121.12,6.23
122.33,6.17
123.55,6.11
124.79,6.05
126.03,6.00
127.29,5.94
128.57,5.88
129.85,5.83
131.15,5.77
132.46,5.70
133.79,5.64
135.12,5.58
136.48,5.52
137.84,5.46
139.22,5.40
140.61,5.34
142.02,5.28
143.44,5.22
144.87,5.15
146.32,5.09
147.78,5.03
149.26,4.97
150.75,4.91
152.26,4.85
153.78,4.79
155.32,4.73
156.88,4.67
158.44,4.60
160.03,4.54
161.63,4.48
163.24,4.42
164.88,4.36
166.53,4.30
168.19,4.24
169.87,4.18
171.57,4.12
173.29,4.06
175.02,4.00
176.77,3.94
178.54,3.87
180.32,3.81
182.13,3.75
183.95,3.70
185.79,3.64
187.65,3.58
189.52,3.52
191.42,3.45
193.33,3.38
195.27,3.32
197.22,3.26
199.19,3.20
201.18,3.13
203.19,3.07
205.23,3.01
207.28,2.94
209.35,2.87
211.44,2.80
213.56,2.73
215.69,2.67
217.85,2.60
220.03,2.54
222.23,2.47
224.45,2.40
226.70,2.33
228.96,2.27
231.25,2.21
233.57,2.15
235.90,2.09
238.26,2.02
240.64,1.95
243.05,1.88
245.48,1.81
247.93,1.74
250.41,1.67
252.92,1.61
255.45,1.54
258.00,1.48
260.58,1.41
263.19,1.35
265.82,1.29
268.48,1.22
271.16,1.14
273.87,1.07
276.61,0.99
279.38,0.93
282.17,0.87
284.99,0.81
287.84,0.74
290.72,0.67
293.63,0.60
296.57,0.53
299.53,0.46
302.53,0.39
305.55,0.32
308.61,0.26
311.69,0.20
314.81,0.14
317.96,0.08
321.14,0.02
324.35,-0.05
327.59,-0.11
330.87,-0.18
334.18,-0.24
337.52,-0.30
340.90,-0.37
344.30,-0.44
347.75,-0.50
351.23,-0.56
354.74,-0.61
358.28,-0.67
361.87,-0.74
365.49,-0.80
369.14,-0.87
372.83,-0.94
376.56,-1.00
380.33,-1.06
384.13,-1.12
387.97,-1.18
391.85,-1.23
395.77,-1.29
399.73,-1.35
403.72,-1.40
407.76,-1.45
411.84,-1.50
415.96,-1.56
420.12,-1.62
424.32,-1.66
428.56,-1.71
432.85,-1.76
437.18,-1.81
441.55,-1.86
445.96,-1.92
450.42,-1.97
454.93,-2.02
459.48,-2.06
464.07,-2.11
468.71,-2.15
473.40,-2.20
478.13,-2.25
482.91,-2.30
487.74,-2.34
492.62,-2.38
497.55,-2.42
502.52,-2.47
507.55,-2.51
512.62,-2.54
517.75,-2.56
522.93,-2.59
528.16,-2.63
533.44,-2.67
538.77,-2.70
544.16,-2.72
549.60,-2.75
555.10,-2.77
560.65,-2.79
566.25,-2.80
571.92,-2.81
577.64,-2.83
583.41,-2.84
589.25,-2.86
595.14,-2.87
601.09,-2.88
607.10,-2.89
613.17,-2.90
619.30,-2.91
625.50,-2.91
631.75,-2.90
638.07,-2.90
644.45,-2.90
650.89,-2.90
657.40,-2.90
663.98,-2.88
670.62,-2.86
677.32,-2.85
684.10,-2.83
690.94,-2.82
697.85,-2.80
704.83,-2.77
711.87,-2.74
718.99,-2.72
726.18,-2.68
733.44,-2.64
740.78,-2.60
748.19,-2.56
755.67,-2.51
763.23,-2.46
770.86,-2.41
778.57,-2.36
786.35,-2.30
794.22,-2.25
802.16,-2.20
810.18,-2.15
818.28,-2.08
826.46,-2.01
834.73,-1.94
843.08,-1.86
851.51,-1.78
860.02,-1.70
868.62,-1.62
877.31,-1.54
886.08,-1.45
894.94,-1.35
903.89,-1.25
912.93,-1.14
922.06,-1.03
931.28,-0.91
940.59,-0.79
950.00,-0.67
959.50,-0.55
969.09,-0.42
978.78,-0.29
988.57,-0.16
998.46,-0.02
1008.44,0.11
1018.53,0.23
1028.71,0.35
1039.00,0.48
1049.39,0.62
1059.88,0.75
1070.48,0.88
1081.19,1.02
1092.00,1.16
1102.92,1.30
1113.95,1.45
1125.09,1.61
1136.34,1.76
1147.70,1.92
1159.18,2.08
1170.77,2.24
1182.48,2.40
1194.30,2.57
1206.25,2.73
1218.31,2.90
1230.49,3.07
1242.80,3.24
1255.22,3.41
1267.78,3.59
1280.45,3.77
1293.26,3.95
1306.19,4.13
1319.25,4.31
1332.45,4.49
1345.77,4.67
1359.23,4.84
1372.82,5.01
1386.55,5.17
1400.41,5.32
1414.42,5.46
1428.56,5.59
1442.85,5.71
1457.28,5.82
1471.85,5.92
1486.57,6.02
1501.43,6.11
1516.45,6.21
1531.61,6.31
1546.93,6.42
1562.40,6.52
1578.02,6.61
1593.80,6.71
1609.74,6.79
1625.84,6.87
1642.10,6.94
1658.52,6.98
1675.10,7.02
1691.85,7.02
1708.77,7.01
1725.86,6.97
1743.12,6.89
1760.55,6.79
1778.15,6.66
1795.94,6.48
1813.90,6.28
1832.03,6.04
1850.36,5.79
1868.86,5.51
1887.55,5.23
1906.42,4.95
1925.49,4.69
1944.74,4.46
1964.19,4.25
1983.83,4.05
2003.67,3.87
2023.71,3.71
2043.94,3.54
2064.38,3.38
2085.03,3.22
2105.88,3.07
2126.94,2.94
2148.20,2.85
2169.69,2.80
2191.38,2.77
2213.30,2.77
2235.43,2.78
2257.78,2.79
2280.36,2.79
2303.17,2.79
2326.20,2.80
2349.46,2.81
2372.95,2.84
2396.68,2.88
2420.65,2.92
2444.86,2.98
2469.31,3.04
2494.00,3.11
2518.94,3.19
2544.13,3.27
2569.57,3.35
2595.27,3.43
2621.22,3.52
2647.43,3.61
2673.90,3.70
2700.64,3.81
2727.65,3.92
2754.93,4.04
2782.48,4.15
2810.30,4.26
2838.40,4.37
2866.79,4.45
2895.46,4.53
2924.41,4.58
2953.65,4.63
2983.19,4.67
3013.02,4.71
3043.15,4.76
3073.58,4.81
3104.32,4.86
3135.36,4.93
3166.72,4.99
3198.38,5.06
3230.37,5.13
3262.67,5.20
3295.30,5.27
3328.25,5.35
3361.53,5.42
3395.15,5.49
3429.10,5.55
3463.39,5.62
3498.03,5.68
3533.01,5.74
3568.34,5.79
3604.02,5.85
3640.06,5.90
3676.46,5.96
3713.22,6.02
3750.36,6.07
3787.86,6.14
3825.74,6.20
3864.00,6.27
3902.64,6.35
3941.66,6.42
3981.08,6.49
4020.89,6.53
4061.10,6.57
4101.71,6.59
4142.73,6.60
4184.15,6.61
4226.00,6.60
4268.26,6.57
4310.94,6.53
4354.05,6.44
4397.59,6.31
4441.56,6.15
4485.98,5.93
4530.84,5.67
4576.15,5.38
4621.91,5.07
4668.13,4.76
4714.81,4.47
4761.96,4.20
4809.58,3.97
4857.67,3.78
4906.25,3.64
4955.31,3.51
5004.87,3.40
5054.91,3.30
5105.46,3.21
5156.52,3.13
5208.08,3.09
5260.16,3.06
5312.77,3.03
5365.89,2.99
5419.55,2.96
5473.75,2.93
5528.49,2.91
5583.77,2.92
5639.61,2.93
5696.00,2.95
5752.96,2.94
5810.49,2.91
5868.60,2.84
5927.28,2.75
5986.56,2.64
6046.42,2.52
6106.89,2.41
6167.96,2.30
6229.64,2.22
6291.93,2.17
6354.85,2.15
6418.40,2.14
6482.58,2.13
6547.41,2.12
6612.88,2.10
6679.01,2.06
6745.80,2.02
6813.26,1.97
6881.39,1.93
6950.21,1.89
7019.71,1.85
7089.91,1.80
7160.81,1.74
7232.41,1.65
7304.74,1.55
7377.79,1.42
7451.56,1.29
7526.08,1.12
7601.34,0.92
7677.35,0.66
7754.13,0.38
7831.67,0.08
7909.98,-0.20
7989.08,-0.46
8068.98,-0.69
8149.67,-0.92
8231.16,-1.13
8313.47,-1.33
8396.61,-1.53
8480.57,-1.71
8565.38,-1.89
8651.03,-2.04
8737.54,-2.16
8824.92,-2.23
8913.17,-2.26
9002.30,-2.28
9092.32,-2.25
9183.25,-2.17
9275.08,-2.07
9367.83,-1.92
9461.51,-1.72
9556.12,-1.49
9651.68,-1.26
9748.20,-1.02
9845.68,-0.84
9944.14,-0.71
10043.58,-0.68
10144.02,-0.73
10245.46,-0.99
10347.91,-1.35
10451.39,-1.82
10555.91,-2.30
10661.46,-2.71
10768.08,-3.01
10875.76,-3.12
10984.52,-3.04
11094.36,-2.83
11205.31,-2.48
11317.36,-2.05
11430.53,-1.65
11544.84,-1.42
11660.29,-1.35
11776.89,-1.43
11894.66,-1.93
12013.60,-2.50
12133.74,-3.23
12255.08,-4.09
12377.63,-4.99
12501.41,-5.88
12626.42,-6.72
12752.68,-7.52
12880.21,-8.28
13009.01,-9.01
13139.10,-9.75
13270.49,-10.42
13403.20,-11.08
13537.23,-11.80
13672.60,-12.57
13809.33,-13.41
13947.42,-14.37
14086.90,-15.42
14227.77,-16.51
14370.04,-17.68
14513.74,-18.91
14658.88,-20.16
14805.47,-21.33
14953.52,-22.37
15103.06,-23.16
15254.09,-23.83
15406.63,-24.09
15560.70,-24.12
15716.30,-23.77
15873.47,-22.93
16032.20,-21.91
16192.52,-20.77
16354.45,-19.78
16517.99,-18.93
16683.17,-18.50
16850.01,-18.24
17018.51,-18.13
17188.69,-18.16
17360.58,-18.21
17534.18,-18.27
17709.53,-18.32
17886.62,-18.30
18065.49,-18.24
18246.14,-18.14
18428.60,-17.99
18612.89,-17.85
18799.02,-17.75
18987.01,-17.73
19176.88,-17.54
19368.65,-16.78
19562.33,-15.23
19757.96,-12.74
19955.54,-10.65
