frequency,raw
20.00,7.00
20.20,7.02
20.40,7.03
20.61,7.05
20.81,7.07
21.02,7.08
21.23,7.10
21.44,7.11
21.66,7.13
21.87,7.14
22.09,7.15
22.31,7.17
22.54,7.18
22.76,7.19
22.99,7.20
23.22,7.20
23.45,7.21
23.69,7.22
23.92,7.23
24.16,7.24
24.40,7.25
24.65,7.26
24.89,7.27
25.14,7.28
25.39,7.29
25.65,7.30
25.91,7.31
26.16,7.32
26.43,7.34
26.69,7.35
26.96,7.36
27.23,7.38
27.50,7.39
27.77,7.41
28.05,7.42
28.33,7.43
28.62,7.45
28.90,7.46
29.19,7.47
29.48,7.48
29.78,7.49
30.08,7.49
30.38,7.50
30.68,7.50
30.99,7.51
31.30,7.51
31.61,7.51
31.93,7.51
32.24,7.51
32.57,7.52
32.89,7.52
33.22,7.52
33.55,7.52
33.89,7.52
34.23,7.52
34.57,7.52
34.92,7.52
35.27,7.52
35.62,7.51
35.97,7.51
36.33,7.51
36.70,7.51
37.06,7.51
37.43,7.51
37.81,7.50
38.19,7.50
38.57,7.50
38.95,7.50
39.34,7.49
39.74,7.48
40.14,7.48
40.54,7.47
40.94,7.47
41.35,7.46
41.76,7.45
42.18,7.44
42.60,7.43
43.03,7.42
43.46,7.40
43.90,7.40
44.33,7.39
44.78,7.38
45.23,7.37
45.68,7.36
46.13,7.35
46.60,7.34
47.06,7.33
47.53,7.31
48.01,7.30
48.49,7.29
48.97,7.27
49.46,7.26
49.96,7.24
50.46,7.23
50.96,7.22
51.47,7.21
51.99,7.20
52.51,7.19
53.03,7.17
53.56,7.16
54.10,7.14
54.64,7.12
55.18,7.11
55.74,7.10
56.29,7.08
56.86,7.06
57.42,7.05
58.00,7.03
58.58,7.01
59.16,7.00
59.76,6.98
60.35,6.97
60.96,6.95
61.57,6.93
62.18,6.91
62.80,6.89
63.43,6.87
64.07,6.85
64.71,6.83
65.35,6.81
66.01,6.79
66.67,6.76
67.33,6.74
68.01,6.71
68.69,6.69
69.37,6.66
70.07,6.64
70.77,6.61
71.48,6.59
72.19,6.56
72.91,6.53
73.64,6.51
74.38,6.48
75.12,6.45
75.87,6.43
76.63,6.40
77.40,6.37
78.17,6.35
78.95,6.32
79.74,6.29
80.54,6.26
81.35,6.24
82.16,6.21
82.98,6.18
83.81,6.15
84.65,6.12
85.50,6.09
86.35,6.06
87.22,6.03
88.09,6.00
88.97,5.97
89.86,5.94
90.76,5.91
91.66,5.88
92.58,5.85
93.51,5.82
94.44,5.79
95.39,5.76
96.34,5.72
97.30,5.69
98.28,5.66
99.26,5.62
100.25,5.59
101.25,5.55
102.27,5.52
103.29,5.48
104.32,5.45
105.37,5.41
106.42,5.38
107.48,5.34
108.56,5.31
109.64,5.27
110.74,5.23
111.85,5.20
112.97,5.16
114.10,5.12
115.24,5.08
116.39,5.04
117.55,5.01
118.73,4.97
119.92,4.93
121.12,4.89
122.33,4.85
123.55,4.81
124.79,4.77
126.03,4.73
127.29,4.69
128.57,4.65
129.85,4.60
131.15,4.56
132.46,4.52
133.79,4.47
135.12,4.43
136.48,4.39
137.84,4.35
139.22,4.30
140.61,4.26
142.02,4.22
143.44,4.17
144.87,4.13
146.32,4.08
147.78,4.03
149.26,3.99
150.75,3.95
152.26,3.90
153.78,3.86
155.32,3.81
156.88,3.77
158.44,3.72
160.03,3.68
161.63,3.63
163.24,3.59
164.88,3.55
166.53,3.50
168.19,3.46
169.87,3.42
171.57,3.37
173.29,3.33
175.02,3.29
176.77,3.24
178.54,3.20
180.32,3.16
182.13,3.11
183.95,3.07
185.79,3.02
187.65,2.98
189.52,2.94
191.42,2.89
193.33,2.85
195.27,2.81
197.22,2.76
199.19,2.71
201.18,2.67
203.19,2.62
205.23,2.57
207.28,2.52
209.35,2.48
211.44,2.43
213.56,2.38
215.69,2.33
217.85,2.28
220.03,2.24
222.23,2.19
224.45,2.14
226.70,2.09
228.96,2.05
231.25,2.00
233.57,1.95
235.90,1.90
238.26,1.85
240.64,1.81
243.05,1.76
245.48,1.71
247.93,1.66
250.41,1.62
252.92,1.57
255.45,1.52
258.00,1.47
260.58,1.43
263.19,1.38
265.82,1.33
268.48,1.29
271.16,1.24
273.87,1.20
276.61,1.15
279.38,1.11
282.17,1.06
284.99,1.01
287.84,0.97
290.72,0.92
293.63,0.88
296.57,0.83
299.53,0.79
302.53,0.74
305.55,0.70
308.61,0.65
311.69,0.61
314.81,0.57
317.96,0.53
321.14,0.48
324.35,0.44
327.59,0.40
330.87,0.36
334.18,0.32
337.52,0.28
340.90,0.24
344.30,0.20
347.75,0.16
351.23,0.12
354.74,0.08
358.28,0.04
361.87,0.00
365.49,-0.04
369.14,-0.07
372.83,-0.11
376.56,-0.15
380.33,-0.19
384.13,-0.22
387.97,-0.26
391.85,-0.30
395.77,-0.33
399.73,-0.37
403.72,-0.40
407.76,-0.44
411.84,-0.47
415.96,-0.50
420.12,-0.54
424.32,-0.57
428.56,-0.60
432.85,-0.63
437.18,-0.66
441.55,-0.70
445.96,-0.73
450.42,-0.76
454.93,-0.79
459.48,-0.82
464.07,-0.84
468.71,-0.87
473.40,-0.90
478.13,-0.93
482.91,-0.95
487.74,-0.98
492.62,-1.00
497.55,-1.03
502.52,-1.05
507.55,-1.08
512.62,-1.10
517.75,-1.12
522.93,-1.14
528.16,-1.16
533.44,-1.18
538.77,-1.20
544.16,-1.22
549.60,-1.23
555.10,-1.25
560.65,-1.27
566.25,-1.28
571.92,-1.30
577.64,-1.31
583.41,-1.32
589.25,-1.34
595.14,-1.35
601.09,-1.36
607.10,-1.37
613.17,-1.38
619.30,-1.40
625.50,-1.41
631.75,-1.41
638.07,-1.42
644.45,-1.42
650.89,-1.42
657.40,-1.42
663.98,-1.42
670.62,-1.42
677.32,-1.41
684.10,-1.41
690.94,-1.40
697.85,-1.40
704.83,-1.39
711.87,-1.39
718.99,-1.39
726.18,-1.38
733.44,-1.38
740.78,-1.38
748.19,-1.37
755.67,-1.36
763.23,-1.35
770.86,-1.34
778.57,-1.32
786.35,-1.30
794.22,-1.27
802.16,-1.25
810.18,-1.23
818.28,-1.20
826.46,-1.18
834.73,-1.16
843.08,-1.13
851.51,-1.09
860.02,-1.05
868.62,-1.01
877.31,-0.96
886.08,-0.91
894.94,-0.85
903.89,-0.79
912.93,-0.73
922.06,-0.66
931.28,-0.58
940.59,-0.51
950.00,-0.44
959.50,-0.36
969.09,-0.27
978.78,-0.19
988.57,-0.10
998.46,-0.01
1008.44,0.07
1018.53,0.15
1028.71,0.24
1039.00,0.33
1049.39,0.42
1059.88,0.51
1070.48,0.60
1081.19,0.70
1092.00,0.79
1102.92,0.89
1113.95,0.99
1125.09,1.08
1136.34,1.18
1147.70,1.28
1159.18,1.38
1170.77,1.48
1182.48,1.58
1194.30,1.69
1206.25,1.79
1218.31,1.89
1230.49,1.99
1242.80,2.10
1255.22,2.20
1267.78,2.31
1280.45,2.42
1293.26,2.53
1306.19,2.64
1319.25,2.75
1332.45,2.86
1345.77,2.97
1359.23,3.08
1372.82,3.20
1386.55,3.31
1400.41,3.43
1414.42,3.54
1428.56,3.66
1442.85,3.78
1457.28,3.90
1471.85,4.02
1486.57,4.15
1501.43,4.28
1516.45,4.40
1531.61,4.53
1546.93,4.66
1562.40,4.80
1578.02,4.94
1593.80,5.07
1609.74,5.22
1625.84,5.36
1642.10,5.52
1658.52,5.67
1675.10,5.82
1691.85,5.98
1708.77,6.14
1725.86,6.30
1743.12,6.46
1760.55,6.62
1778.15,6.78
1795.94,6.94
1813.90,7.10
1832.03,7.25
1850.36,7.41
1868.86,7.57
1887.55,7.72
1906.42,7.86
1925.49,8.00
1944.74,8.13
1964.19,8.25
1983.83,8.36
2003.67,8.46
2023.71,8.54
2043.94,8.62
2064.38,8.67
2085.03,8.71
2105.88,8.74
2126.94,8.74
2148.20,8.73
2169.69,8.71
2191.38,8.67
2213.30,8.62
2235.43,8.55
2257.78,8.48
2280.36,8.40
2303.17,8.30
2326.20,8.21
2349.46,8.10
2372.95,7.99
2396.68,7.88
2420.65,7.76
2444.86,7.64
2469.31,7.52
2494.00,7.40
2518.94,7.28
2544.13,7.16
2569.57,7.05
2595.27,6.93
2621.22,6.82
2647.43,6.71
2673.90,6.60
2700.64,6.49
2727.65,6.39
2754.93,6.29
2782.48,6.20
2810.30,6.11
2838.40,6.02
2866.79,5.94
2895.46,5.86
2924.41,5.79
2953.65,5.72
2983.19,5.66
3013.02,5.60
3043.15,5.55
3073.58,5.51
3104.32,5.47
3135.36,5.44
3166.72,5.42
3198.38,5.41
3230.37,5.41
3262.67,5.41
3295.30,5.42
3328.25,5.45
3361.53,5.47
3395.15,5.51
3429.10,5.55
3463.39,5.60
3498.03,5.66
3533.01,5.73
3568.34,5.81
3604.02,5.89
3640.06,5.98
3676.46,6.08
3713.22,6.19
3750.36,6.30
3787.86,6.42
3825.74,6.54
3864.00,6.67
3902.64,6.80
3941.66,6.94
3981.08,7.06
4020.89,7.18
4061.10,7.29
4101.71,7.39
4142.73,7.47
4184.15,7.53
4226.00,7.57
4268.26,7.59
4310.94,7.59
4354.05,7.54
4397.59,7.46
4441.56,7.36
4485.98,7.20
4530.84,7.01
4576.15,6.77
4621.91,6.52
4668.13,6.22
4714.81,5.90
4761.96,5.56
4809.58,5.19
4857.67,4.82
4906.25,4.42
4955.31,4.02
5004.87,3.62
5054.91,3.20
5105.46,2.78
5156.52,2.37
5208.08,1.95
5260.16,1.54
5312.77,1.14
5365.89,0.74
5419.55,0.35
5473.75,-0.03
5528.49,-0.38
5583.77,-0.69
5639.61,-0.98
5696.00,-1.26
5752.96,-1.57
5810.49,-1.88
5868.60,-2.20
5927.28,-2.51
5986.56,-2.81
6046.42,-3.11
6106.89,-3.40
6167.96,-3.68
6229.64,-3.95
6291.93,-4.22
6354.85,-4.49
6418.40,-4.75
6482.58,-5.02
6547.41,-5.30
6612.88,-5.58
6679.01,-5.88
6745.80,-6.20
6813.26,-6.53
6881.39,-6.88
6950.21,-7.22
7019.71,-7.52
7089.91,-7.74
7160.81,-7.70
7232.41,-7.46
7304.74,-6.99
7377.79,-6.28
7451.56,-5.52
7526.08,-4.73
7601.34,-3.92
7677.35,-3.11
7754.13,-2.29
7831.67,-1.47
7909.98,-0.65
7989.08,0.18
8068.98,1.04
8149.67,1.88
8231.16,2.72
8313.47,3.49
8396.61,4.25
8480.57,4.98
8565.38,5.74
8651.03,6.51
8737.54,7.28
8824.92,7.99
8913.17,8.59
9002.30,9.13
9092.32,9.45
9183.25,9.61
9275.08,9.64
9367.83,9.52
9461.51,9.26
9556.12,8.92
9651.68,8.54
9748.20,8.14
9845.68,7.75
9944.14,7.39
10043.58,7.08
10144.02,6.81
10245.46,6.63
10347.91,6.50
10451.39,6.43
10555.91,6.46
10661.46,6.53
10768.08,6.64
10875.76,6.78
10984.52,6.88
11094.36,6.94
11205.31,6.91
11317.36,6.67
11430.53,6.34
11544.84,5.85
11660.29,5.29
11776.89,4.74
11894.66,4.28
12013.60,3.84
12133.74,3.38
12255.08,2.86
12377.63,2.26
12501.41,1.58
12626.42,0.82
12752.68,0.14
12880.21,-0.29
13009.01,-0.58
13139.10,-0.87
13270.49,-0.93
13403.20,-0.99
13537.23,-1.22
13672.60,-1.56
13809.33,-2.00
13947.42,-2.50
14086.90,-2.97
14227.77,-3.41
14370.04,-3.78
14513.74,-4.07
14658.88,-4.23
14805.47,-4.34
14953.52,-4.35
15103.06,-4.26
15254.09,-4.11
15406.63,-3.85
15560.70,-3.54
15716.30,-3.19
15873.47,-2.86
16032.20,-2.57
16192.52,-2.45
16354.45,-2.60
16517.99,-2.92
16683.17,-3.50
16850.01,-4.03
17018.51,-4.51
17188.69,-4.72
17360.58,-4.80
17534.18,-4.79
17709.53,-4.68
17886.62,-4.62
18065.49,-4.65
18246.14,-4.83
18428.60,-5.21
18612.89,-5.63
18799.02,-6.04
18987.01,-6.36
19176.88,-6.47
19368.65,-6.44
19562.33,-6.28
19757.96,-6.04
19955.54,-5.86
