frequency,raw
20.00,4.91
20.20,4.96
20.40,5.01
20.61,5.05
20.81,5.09
21.02,5.12
21.23,5.16
21.44,5.19
21.66,5.22
21.87,5.25
22.09,5.28
22.31,5.32
22.54,5.35
22.76,5.38
22.99,5.41
23.22,5.44
23.45,5.47
23.69,5.50
23.92,5.53
24.16,5.56
24.40,5.60
24.65,5.63
24.89,5.66
25.14,5.70
25.39,5.73
25.65,5.76
25.91,5.80
26.16,5.83
26.43,5.86
26.69,5.90
26.96,5.93
27.23,5.97
27.50,6.00
27.77,6.04
28.05,6.08
28.33,6.11
28.62,6.14
28.90,6.16
29.19,6.19
29.48,6.21
29.78,6.23
30.08,6.26
30.38,6.28
30.68,6.30
30.99,6.32
31.30,6.34
31.61,6.36
31.93,6.38
32.24,6.39
32.57,6.41
32.89,6.43
33.22,6.45
33.55,6.46
33.89,6.48
34.23,6.50
34.57,6.51
34.92,6.53
35.27,6.54
35.62,6.56
35.97,6.58
36.33,6.60
36.70,6.62
37.06,6.64
37.43,6.65
37.81,6.67
38.19,6.68
38.57,6.68
38.95,6.69
39.34,6.70
39.74,6.71
40.14,6.73
40.54,6.74
40.94,6.76
41.35,6.76
41.76,6.77
42.18,6.77
42.60,6.77
43.03,6.78
43.46,6.79
43.90,6.80
44.33,6.80
44.78,6.81
45.23,6.81
45.68,6.82
46.13,6.83
46.60,6.83
47.06,6.82
47.53,6.82
48.01,6.82
48.49,6.82
48.97,6.83
49.46,6.83
49.96,6.82
50.46,6.82
50.96,6.82
51.47,6.83
51.99,6.83
52.51,6.83
53.03,6.83
53.56,6.83
54.10,6.83
54.64,6.83
55.18,6.83
55.74,6.83
56.29,6.82
56.86,6.82
57.42,6.82
58.00,6.82
58.58,6.82
59.16,6.81
59.76,6.80
60.35,6.80
60.96,6.80
61.57,6.79
62.18,6.78
62.80,6.78
63.43,6.77
64.07,6.76
64.71,6.75
65.35,6.75
66.01,6.74
66.67,6.72
67.33,6.71
68.01,6.70
68.69,6.68
69.37,6.66
70.07,6.65
70.77,6.65
71.48,6.63
72.19,6.61
72.91,6.60
73.64,6.59
74.38,6.57
75.12,6.55
75.87,6.54
76.63,6.52
77.40,6.50
78.17,6.48
78.95,6.48
79.74,6.46
80.54,6.43
81.35,6.41
82.16,6.40
82.98,6.38
83.81,6.36
84.65,6.34
85.50,6.31
86.35,6.30
87.22,6.29
88.09,6.26
88.97,6.24
89.86,6.23
90.76,6.21
91.66,6.18
92.58,6.16
93.51,6.14
94.44,6.12
95.39,6.09
96.34,6.06
97.30,6.04
98.28,6.02
99.26,6.00
100.25,5.98
101.25,5.95
102.27,5.92
103.29,5.90
104.32,5.87
105.37,5.84
106.42,5.82
107.48,5.78
108.56,5.75
109.64,5.73
110.74,5.71
111.85,5.68
112.97,5.65
114.10,5.62
115.24,5.59
116.39,5.56
117.55,5.52
118.73,5.49
119.92,5.46
121.12,5.43
122.33,5.40
123.55,5.37
124.79,5.34
126.03,5.31
127.29,5.27
128.57,5.24
129.85,5.20
131.15,5.16
132.46,5.13
133.79,5.10
135.12,5.07
136.48,5.03
137.84,4.99
139.22,4.95
140.61,4.91
142.02,4.89
143.44,4.84
144.87,4.81
146.32,4.76
147.78,4.73
149.26,4.69
150.75,4.65
152.26,4.61
153.78,4.58
155.32,4.54
156.88,4.50
158.44,4.45
160.03,4.42
161.63,4.38
163.24,4.33
164.88,4.30
166.53,4.27
168.19,4.23
169.87,4.19
171.57,4.15
173.29,4.11
175.02,4.07
176.77,4.03
178.54,3.98
180.32,3.95
182.13,3.91
183.95,3.88
185.79,3.84
187.65,3.80
189.52,3.76
191.42,3.71
193.33,3.67
195.27,3.63
197.22,3.59
199.19,3.55
201.18,3.51
203.19,3.47
205.23,3.42
207.28,3.37
209.35,3.34
211.44,3.28
213.56,3.25
215.69,3.19
217.85,3.15
220.03,3.10
222.23,3.06
224.45,3.02
226.70,2.97
228.96,2.91
231.25,2.87
233.57,2.82
235.90,2.78
238.26,2.73
240.64,2.70
243.05,2.63
245.48,2.59
247.93,2.55
250.41,2.50
252.92,2.46
255.45,2.41
258.00,2.37
260.58,2.31
263.19,2.27
265.82,2.23
268.48,2.18
271.16,2.13
273.87,2.08
276.61,2.04
279.38,1.99
282.17,1.95
284.99,1.90
287.84,1.86
290.72,1.81
293.63,1.76
296.57,1.72
299.53,1.67
302.53,1.62
305.55,1.59
308.61,1.53
311.69,1.49
314.81,1.45
317.96,1.41
321.14,1.36
324.35,1.31
327.59,1.26
330.87,1.22
334.18,1.18
337.52,1.14
340.90,1.09
344.30,1.05
347.75,1.00
351.23,0.96
354.74,0.92
358.28,0.89
361.87,0.84
365.49,0.78
369.14,0.76
372.83,0.73
376.56,0.65
380.33,0.64
384.13,0.62
387.97,0.52
391.85,0.51
395.77,0.51
399.73,0.39
403.72,0.41
407.76,0.39
411.84,0.28
415.96,0.31
420.12,0.22
424.32,0.17
428.56,0.19
432.85,0.10
437.18,0.11
441.55,0.04
445.96,-0.00
450.42,-0.03
454.93,-0.05
459.48,-0.10
464.07,-0.14
468.71,-0.17
473.40,-0.18
478.13,-0.24
482.91,-0.25
487.74,-0.28
492.62,-0.33
497.55,-0.36
502.52,-0.41
507.55,-0.40
512.62,-0.47
517.75,-0.48
522.93,-0.50
528.16,-0.54
533.44,-0.58
538.77,-0.59
544.16,-0.60
549.60,-0.66
555.10,-0.68
560.65,-0.71
566.25,-0.72
571.92,-0.74
577.64,-0.76
583.41,-0.77
589.25,-0.81
595.14,-0.82
601.09,-0.86
607.10,-0.88
613.17,-0.89
619.30,-0.93
625.50,-0.93
631.75,-0.94
638.07,-0.96
644.45,-1.00
650.89,-1.03
657.40,-1.03
663.98,-1.02
670.62,-1.04
677.32,-1.05
684.10,-1.06
690.94,-1.09
697.85,-1.08
704.83,-1.11
711.87,-1.11
718.99,-1.14
726.18,-1.11
733.44,-1.14
740.78,-1.14
748.19,-1.12
755.67,-1.12
763.23,-1.10
770.86,-1.07
778.57,-1.02
786.35,-1.02
794.22,-0.99
802.16,-0.98
810.18,-0.98
818.28,-0.93
826.46,-0.90
834.73,-0.87
843.08,-0.82
851.51,-0.81
860.02,-0.77
868.62,-0.73
877.31,-0.71
886.08,-0.67
894.94,-0.61
903.89,-0.57
912.93,-0.54
922.06,-0.47
931.28,-0.41
940.59,-0.37
950.00,-0.31
959.50,-0.27
969.09,-0.18
978.78,-0.15
988.57,-0.07
998.46,-0.01
1008.44,0.08
1018.53,0.16
1028.71,0.21
1039.00,0.31
1049.39,0.35
1059.88,0.42
1070.48,0.49
1081.19,0.59
1092.00,0.67
1102.92,0.72
1113.95,0.80
1125.09,0.87
1136.34,0.96
1147.70,1.02
1159.18,1.13
1170.77,1.19
1182.48,1.27
1194.30,1.35
1206.25,1.44
1218.31,1.53
1230.49,1.61
1242.80,1.68
1255.22,1.78
1267.78,1.85
1280.45,1.94
1293.26,2.02
1306.19,2.11
1319.25,2.21
1332.45,2.29
1345.77,2.37
1359.23,2.47
1372.82,2.55
1386.55,2.65
1400.41,2.73
1414.42,2.84
1428.56,2.93
1442.85,3.02
1457.28,3.11
1471.85,3.21
1486.57,3.30
1501.43,3.41
1516.45,3.51
1531.61,3.62
1546.93,3.73
1562.40,3.83
1578.02,3.93
1593.80,4.05
1609.74,4.17
1625.84,4.29
1642.10,4.42
1658.52,4.55
1675.10,4.67
1691.85,4.80
1708.77,4.93
1725.86,5.06
1743.12,5.20
1760.55,5.35
1778.15,5.48
1795.94,5.62
1813.90,5.76
1832.03,5.90
1850.36,6.04
1868.86,6.17
1887.55,6.33
1906.42,6.46
1925.49,6.59
1944.74,6.73
1964.19,6.87
1983.83,7.01
2003.67,7.12
2023.71,7.26
2043.94,7.38
2064.38,7.49
2085.03,7.60
2105.88,7.71
2126.94,7.79
2148.20,7.88
2169.69,7.95
2191.38,8.02
2213.30,8.09
2235.43,8.14
2257.78,8.17
2280.36,8.20
2303.17,8.22
2326.20,8.21
2349.46,8.21
2372.95,8.20
2396.68,8.17
2420.65,8.13
2444.86,8.08
2469.31,8.03
2494.00,7.96
2518.94,7.90
2544.13,7.83
2569.57,7.75
2595.27,7.66
2621.22,7.58
2647.43,7.49
2673.90,7.40
2700.64,7.30
2727.65,7.20
2754.93,7.11
2782.48,7.01
2810.30,6.91
2838.40,6.81
2866.79,6.71
2895.46,6.63
2924.41,6.54
2953.65,6.45
2983.19,6.37
3013.02,6.28
3043.15,6.21
3073.58,6.14
3104.32,6.08
3135.36,6.02
3166.72,5.97
3198.38,5.94
3230.37,5.90
3262.67,5.87
3295.30,5.85
3328.25,5.84
3361.53,5.84
3395.15,5.84
3429.10,5.85
3463.39,5.88
3498.03,5.89
3533.01,5.94
3568.34,5.98
3604.02,6.03
3640.06,6.09
3676.46,6.17
3713.22,6.25
3750.36,6.34
3787.86,6.44
3825.74,6.54
3864.00,6.66
3902.64,6.80
3941.66,6.92
3981.08,7.06
4020.89,7.21
4061.10,7.34
4101.71,7.48
4142.73,7.63
4184.15,7.79
4226.00,7.91
4268.26,8.06
4310.94,8.18
4354.05,8.31
4397.59,8.39
4441.56,8.46
4485.98,8.52
4530.84,8.53
4576.15,8.51
4621.91,8.45
4668.13,8.36
4714.81,8.23
4761.96,8.06
4809.58,7.85
4857.67,7.62
4906.25,7.36
4955.31,7.08
5004.87,6.78
5054.91,6.43
5105.46,6.10
5156.52,5.75
5208.08,5.41
5260.16,5.07
5312.77,4.72
5365.89,4.38
5419.55,4.09
5473.75,3.78
5528.49,3.49
5583.77,3.20
5639.61,2.95
5696.00,2.69
5752.96,2.48
5810.49,2.28
5868.60,2.09
5927.28,1.94
5986.56,1.76
6046.42,1.63
6106.89,1.53
6167.96,1.46
6229.64,1.40
6291.93,1.35
6354.85,1.36
6418.40,1.39
6482.58,1.42
6547.41,1.50
6612.88,1.60
6679.01,1.72
6745.80,1.90
6813.26,2.08
6881.39,2.28
6950.21,2.54
7019.71,2.86
7089.91,3.17
7160.81,3.49
7232.41,3.89
7304.74,4.33
7377.79,4.81
7451.56,5.31
7526.08,5.82
7601.34,6.40
7677.35,6.97
7754.13,7.58
7831.67,8.13
7909.98,8.60
7989.08,8.94
8068.98,9.08
8149.67,8.98
8231.16,8.64
8313.47,8.11
8396.61,7.45
8480.57,6.71
8565.38,5.95
8651.03,5.21
8737.54,4.49
8824.92,3.83
8913.17,3.23
9002.30,2.70
9092.32,2.22
9183.25,1.78
9275.08,1.41
9367.83,1.09
9461.51,0.86
9556.12,0.66
9651.68,0.55
9748.20,0.50
9845.68,0.48
9944.14,0.59
10043.58,0.72
10144.02,0.93
10245.46,1.18
10347.91,1.51
10451.39,1.88
10555.91,2.28
10661.46,2.58
10768.08,2.91
10875.76,3.12
10984.52,3.25
11094.36,3.28
11205.31,3.17
11317.36,2.83
11430.53,2.28
11544.84,1.51
11660.29,0.72
11776.89,-0.16
11894.66,-0.98
12013.60,-1.77
12133.74,-2.49
12255.08,-3.09
12377.63,-3.61
12501.41,-3.96
12626.42,-4.35
12752.68,-4.61
12880.21,-4.77
13009.01,-4.87
13139.10,-4.85
13270.49,-4.68
13403.20,-4.60
13537.23,-4.40
13672.60,-4.25
13809.33,-4.14
13947.42,-4.32
14086.90,-4.67
14227.77,-5.52
14370.04,-6.50
14513.74,-7.71
14658.88,-8.87
14805.47,-10.10
14953.52,-11.28
15103.06,-12.26
15254.09,-13.27
15406.63,-13.61
15560.70,-14.67
15716.30,-15.16
15873.47,-15.32
16032.20,-15.54
16192.52,-15.36
16354.45,-15.24
16517.99,-14.52
16683.17,-14.09
16850.01,-14.18
17018.51,-14.61
17188.69,-15.65
17360.58,-17.65
17534.18,-19.94
17709.53,-21.98
17886.62,-24.02
18065.49,-25.17
18246.14,-27.02
18428.60,-27.74
18612.89,-31.85
18799.02,-32.95
18987.01,-37.73
19176.88,-37.33
19368.65,-33.62
19562.33,-35.69
19757.96,-43.43
19955.54,-29.23
