frequency,raw
20.00,4.77
20.20,4.77
20.40,4.78
20.61,4.79
20.81,4.81
21.02,4.83
21.23,4.85
21.44,4.88
21.66,4.91
21.87,4.93
22.09,4.95
22.31,4.96
22.54,4.97
22.76,4.97
22.99,4.98
23.22,4.98
23.45,4.99
23.69,5.00
23.92,5.01
24.16,5.03
24.40,5.06
24.65,5.09
24.89,5.12
25.14,5.17
25.39,5.22
25.65,5.27
25.91,5.32
26.16,5.36
26.43,5.40
26.69,5.42
26.96,5.44
27.23,5.45
27.50,5.46
27.77,5.47
28.05,5.48
28.33,5.49
28.62,5.51
28.90,5.51
29.19,5.52
29.48,5.53
29.78,5.54
30.08,5.55
30.38,5.56
30.68,5.59
30.99,5.61
31.30,5.63
31.61,5.64
31.93,5.64
32.24,5.64
32.57,5.64
32.89,5.65
33.22,5.67
33.55,5.69
33.89,5.71
34.23,5.72
34.57,5.73
34.92,5.72
35.27,5.73
35.62,5.76
35.97,5.80
36.33,5.86
36.70,5.89
37.06,5.90
37.43,5.86
37.81,5.82
38.19,5.78
38.57,5.77
38.95,5.76
39.34,5.73
39.74,5.69
40.14,5.65
40.54,5.63
40.94,5.67
41.35,5.71
41.76,5.74
42.18,5.71
42.60,5.67
43.03,5.65
43.46,5.71
43.90,5.79
44.33,5.88
44.78,5.89
45.23,5.88
45.68,5.85
46.13,5.83
46.60,5.85
47.06,5.88
47.53,5.90
48.01,5.91
48.49,5.92
48.97,5.92
49.46,5.92
49.96,5.90
50.46,5.87
50.96,5.84
51.47,5.83
51.99,5.86
52.51,5.88
53.03,5.89
53.56,5.86
54.10,5.83
54.64,5.82
55.18,5.84
55.74,5.86
56.29,5.86
56.86,5.85
57.42,5.84
58.00,5.83
58.58,5.83
59.16,5.83
59.76,5.82
60.35,5.81
60.96,5.80
61.57,5.80
62.18,5.81
62.80,5.82
63.43,5.81
64.07,5.78
64.71,5.75
65.35,5.72
66.01,5.69
66.67,5.69
67.33,5.70
68.01,5.71
68.69,5.70
69.37,5.67
70.07,5.65
70.77,5.64
71.48,5.63
72.19,5.62
72.91,5.60
73.64,5.58
74.38,5.56
75.12,5.54
75.87,5.53
76.63,5.53
77.40,5.53
78.17,5.52
78.95,5.51
79.74,5.47
80.54,5.44
81.35,5.41
82.16,5.39
82.98,5.38
83.81,5.38
84.65,5.38
85.50,5.37
86.35,5.34
87.22,5.30
88.09,5.25
88.97,5.21
89.86,5.19
90.76,5.18
91.66,5.18
92.58,5.18
93.51,5.17
94.44,5.15
95.39,5.11
96.34,5.07
97.30,5.05
98.28,5.04
99.26,5.03
100.25,5.01
101.25,4.99
102.27,4.96
103.29,4.93
104.32,4.90
105.37,4.89
106.42,4.87
107.48,4.85
108.56,4.83
109.64,4.80
110.74,4.77
111.85,4.74
112.97,4.70
114.10,4.66
115.24,4.63
116.39,4.60
117.55,4.57
118.73,4.52
119.92,4.46
121.12,4.42
122.33,4.41
123.55,4.39
124.79,4.37
126.03,4.34
127.29,4.30
128.57,4.26
129.85,4.23
131.15,4.20
132.46,4.17
133.79,4.14
135.12,4.09
136.48,4.03
137.84,3.95
139.22,3.90
140.61,3.87
142.02,3.86
143.44,3.83
144.87,3.79
146.32,3.74
147.78,3.68
149.26,3.63
150.75,3.58
152.26,3.52
153.78,3.45
155.32,3.38
156.88,3.31
158.44,3.23
160.03,3.16
161.63,3.05
163.24,2.96
164.88,2.88
166.53,2.83
168.19,2.78
169.87,2.73
171.57,2.66
173.29,2.63
175.02,2.63
176.77,2.55
178.54,2.39
180.32,2.28
182.13,2.62
183.95,2.85
185.79,3.00
187.65,3.08
189.52,3.10
191.42,3.12
193.33,3.18
195.27,3.27
197.22,3.30
199.19,3.34
201.18,3.34
203.19,3.27
205.23,3.01
207.28,2.96
209.35,3.03
211.44,3.00
213.56,2.87
215.69,2.88
217.85,2.93
220.03,2.97
222.23,2.81
224.45,2.66
226.70,2.47
228.96,2.43
231.25,2.50
233.57,2.67
235.90,2.90
238.26,3.09
240.64,3.17
243.05,2.93
245.48,2.66
247.93,2.47
250.41,2.45
252.92,2.48
255.45,2.44
258.00,2.34
260.58,2.21
263.19,2.10
265.82,2.02
268.48,1.95
271.16,1.89
273.87,1.84
276.61,1.79
279.38,1.73
282.17,1.68
284.99,1.62
287.84,1.61
290.72,1.58
293.63,1.54
296.57,1.51
299.53,1.50
302.53,1.47
305.55,1.43
308.61,1.38
311.69,1.34
314.81,1.31
317.96,1.27
321.14,1.22
324.35,1.16
327.59,1.11
330.87,1.07
334.18,1.05
337.52,1.03
340.90,1.01
344.30,0.98
347.75,0.93
351.23,0.88
354.74,0.82
358.28,0.77
361.87,0.72
365.49,0.68
369.14,0.65
372.83,0.61
376.56,0.57
380.33,0.53
384.13,0.49
387.97,0.45
391.85,0.43
395.77,0.40
399.73,0.37
403.72,0.33
407.76,0.31
411.84,0.28
415.96,0.26
420.12,0.24
424.32,0.21
428.56,0.19
432.85,0.16
437.18,0.12
441.55,0.09
445.96,0.07
450.42,0.05
454.93,0.02
459.48,-0.03
464.07,-0.08
468.71,-0.12
473.40,-0.17
478.13,-0.21
482.91,-0.24
487.74,-0.26
492.62,-0.27
497.55,-0.29
502.52,-0.31
507.55,-0.34
512.62,-0.36
517.75,-0.39
522.93,-0.42
528.16,-0.46
533.44,-0.49
538.77,-0.52
544.16,-0.55
549.60,-0.57
555.10,-0.59
560.65,-0.60
566.25,-0.63
571.92,-0.65
577.64,-0.67
583.41,-0.69
589.25,-0.71
595.14,-0.72
601.09,-0.73
607.10,-0.74
613.17,-0.76
619.30,-0.78
625.50,-0.79
631.75,-0.81
638.07,-0.84
644.45,-0.86
650.89,-0.88
657.40,-0.89
663.98,-0.89
670.62,-0.90
677.32,-0.91
684.10,-0.93
690.94,-0.94
697.85,-0.95
704.83,-0.95
711.87,-0.96
718.99,-0.96
726.18,-0.97
733.44,-0.98
740.78,-0.98
748.19,-0.97
755.67,-0.95
763.23,-0.93
770.86,-0.92
778.57,-0.91
786.35,-0.91
794.22,-0.90
802.16,-0.89
810.18,-0.88
818.28,-0.87
826.46,-0.86
834.73,-0.84
843.08,-0.82
851.51,-0.79
860.02,-0.75
868.62,-0.72
877.31,-0.68
886.08,-0.64
894.94,-0.60
903.89,-0.56
912.93,-0.52
922.06,-0.48
931.28,-0.43
940.59,-0.38
950.00,-0.33
959.50,-0.27
969.09,-0.21
978.78,-0.14
988.57,-0.08
998.46,-0.01
1008.44,0.05
1018.53,0.12
1028.71,0.19
1039.00,0.26
1049.39,0.33
1059.88,0.39
1070.48,0.46
1081.19,0.54
1092.00,0.62
1102.92,0.70
1113.95,0.78
1125.09,0.85
1136.34,0.92
1147.70,0.99
1159.18,1.06
1170.77,1.14
1182.48,1.22
1194.30,1.30
1206.25,1.38
1218.31,1.46
1230.49,1.53
1242.80,1.61
1255.22,1.68
1267.78,1.75
1280.45,1.82
1293.26,1.89
1306.19,1.96
1319.25,2.03
1332.45,2.10
1345.77,2.18
1359.23,2.25
1372.82,2.32
1386.55,2.39
1400.41,2.45
1414.42,2.52
1428.56,2.59
1442.85,2.67
1457.28,2.75
1471.85,2.82
1486.57,2.90
1501.43,2.98
1516.45,3.06
1531.61,3.13
1546.93,3.20
1562.40,3.28
1578.02,3.36
1593.80,3.44
1609.74,3.52
1625.84,3.60
1642.10,3.70
1658.52,3.80
1675.10,3.90
1691.85,3.99
1708.77,4.09
1725.86,4.18
1743.12,4.27
1760.55,4.36
1778.15,4.46
1795.94,4.56
1813.90,4.65
1832.03,4.75
1850.36,4.85
1868.86,4.95
1887.55,5.05
1906.42,5.15
1925.49,5.24
1944.74,5.34
1964.19,5.44
1983.83,5.53
2003.67,5.62
2023.71,5.71
2043.94,5.80
2064.38,5.89
2085.03,5.99
2105.88,6.08
2126.94,6.17
2148.20,6.26
2169.69,6.35
2191.38,6.43
2213.30,6.52
2235.43,6.61
2257.78,6.69
2280.36,6.77
2303.17,6.85
2326.20,6.92
2349.46,7.00
2372.95,7.07
2396.68,7.15
2420.65,7.21
2444.86,7.27
2469.31,7.33
2494.00,7.39
2518.94,7.45
2544.13,7.50
2569.57,7.55
2595.27,7.59
2621.22,7.63
2647.43,7.66
2673.90,7.69
2700.64,7.71
2727.65,7.73
2754.93,7.75
2782.48,7.75
2810.30,7.75
2838.40,7.75
2866.79,7.74
2895.46,7.72
2924.41,7.70
2953.65,7.67
2983.19,7.63
3013.02,7.60
3043.15,7.56
3073.58,7.52
3104.32,7.48
3135.36,7.43
3166.72,7.38
3198.38,7.33
3230.37,7.28
3262.67,7.23
3295.30,7.17
3328.25,7.12
3361.53,7.06
3395.15,7.01
3429.10,6.96
3463.39,6.91
3498.03,6.86
3533.01,6.81
3568.34,6.75
3604.02,6.70
3640.06,6.64
3676.46,6.59
3713.22,6.54
3750.36,6.50
3787.86,6.46
3825.74,6.42
3864.00,6.37
3902.64,6.33
3941.66,6.28
3981.08,6.24
4020.89,6.21
4061.10,6.17
4101.71,6.13
4142.73,6.09
4184.15,6.06
4226.00,6.03
4268.26,6.00
4310.94,5.97
4354.05,5.95
4397.59,5.94
4441.56,5.92
4485.98,5.91
4530.84,5.89
4576.15,5.88
4621.91,5.87
4668.13,5.87
4714.81,5.87
4761.96,5.88
4809.58,5.88
4857.67,5.89
4906.25,5.89
4955.31,5.90
5004.87,5.90
5054.91,5.89
5105.46,5.88
5156.52,5.88
5208.08,5.88
5260.16,5.87
5312.77,5.85
5365.89,5.83
5419.55,5.81
5473.75,5.78
5528.49,5.76
5583.77,5.73
5639.61,5.70
5696.00,5.67
5752.96,5.63
5810.49,5.59
5868.60,5.55
5927.28,5.50
5986.56,5.45
6046.42,5.40
6106.89,5.35
6167.96,5.31
6229.64,5.26
6291.93,5.22
6354.85,5.19
6418.40,5.16
6482.58,5.15
6547.41,5.15
6612.88,5.16
6679.01,5.17
6745.80,5.20
6813.26,5.24
6881.39,5.31
6950.21,5.39
7019.71,5.49
7089.91,5.62
7160.81,5.79
7232.41,5.97
7304.74,6.18
7377.79,6.42
7451.56,6.69
7526.08,6.99
7601.34,7.31
7677.35,7.64
7754.13,7.97
7831.67,8.28
7909.98,8.57
7989.08,8.79
8068.98,8.87
8149.67,8.84
8231.16,8.66
8313.47,8.27
8396.61,7.78
8480.57,7.12
8565.38,6.35
8651.03,5.53
8737.54,4.67
8824.92,3.80
8913.17,2.94
9002.30,2.08
9092.32,1.26
9183.25,0.46
9275.08,-0.32
9367.83,-1.07
9461.51,-1.81
9556.12,-2.52
9651.68,-3.21
9748.20,-3.88
9845.68,-4.50
9944.14,-5.10
10043.58,-5.67
10144.02,-6.21
10245.46,-6.74
10347.91,-7.27
10451.39,-7.77
10555.91,-8.22
10661.46,-8.62
10768.08,-8.96
10875.76,-9.20
10984.52,-9.24
11094.36,-9.14
11205.31,-8.83
11317.36,-8.33
11430.53,-7.82
11544.84,-7.35
11660.29,-6.97
11776.89,-6.68
11894.66,-6.57
12013.60,-6.49
12133.74,-6.44
12255.08,-6.43
12377.63,-6.41
12501.41,-6.38
12626.42,-6.31
12752.68,-6.21
12880.21,-6.03
13009.01,-5.83
13139.10,-5.63
13270.49,-5.33
13403.20,-4.99
13537.23,-4.57
13672.60,-4.09
13809.33,-3.55
13947.42,-2.92
14086.90,-2.18
14227.77,-1.37
14370.04,-0.49
14513.74,0.49
14658.88,1.51
14805.47,2.46
14953.52,3.27
15103.06,3.66
15254.09,3.84
15406.63,3.29
15560.70,2.56
15716.30,1.54
15873.47,0.45
16032.20,-0.64
16192.52,-1.63
16354.45,-2.52
16517.99,-3.33
16683.17,-4.05
16850.01,-4.72
17018.51,-5.37
17188.69,-6.02
17360.58,-6.68
17534.18,-7.38
17709.53,-8.11
17886.62,-8.87
18065.49,-9.63
18246.14,-10.38
18428.60,-11.14
18612.89,-11.91
18799.02,-12.68
18987.01,-13.44
19176.88,-14.15
19368.65,-14.37
19562.33,-13.73
19757.96,-11.96
19955.54,-10.12
