frequency,raw
20.00,4.75
20.20,4.77
20.40,4.79
20.61,4.81
20.81,4.84
21.02,4.87
21.23,4.89
21.44,4.92
21.66,4.95
21.87,4.98
22.09,5.01
22.31,5.03
22.54,5.06
22.76,5.09
22.99,5.11
23.22,5.14
23.45,5.17
23.69,5.19
23.92,5.22
24.16,5.24
24.40,5.26
24.65,5.28
24.89,5.31
25.14,5.33
25.39,5.35
25.65,5.37
25.91,5.39
26.16,5.42
26.43,5.44
26.69,5.46
26.96,5.48
27.23,5.49
27.50,5.51
27.77,5.53
28.05,5.55
28.33,5.56
28.62,5.58
28.90,5.60
29.19,5.61
29.48,5.63
29.78,5.64
30.08,5.66
30.38,5.67
30.68,5.68
30.99,5.70
31.30,5.71
31.61,5.72
31.93,5.73
32.24,5.74
32.57,5.75
32.89,5.76
33.22,5.77
33.55,5.77
33.89,5.78
34.23,5.79
34.57,5.80
34.92,5.81
35.27,5.81
35.62,5.82
35.97,5.83
36.33,5.83
36.70,5.84
37.06,5.84
37.43,5.85
37.81,5.85
38.19,5.85
38.57,5.86
38.95,5.86
39.34,5.86
39.74,5.86
40.14,5.86
40.54,5.86
40.94,5.86
41.35,5.86
41.76,5.86
42.18,5.86
42.60,5.86
43.03,5.85
43.46,5.85
43.90,5.85
44.33,5.84
44.78,5.84
45.23,5.83
45.68,5.83
46.13,5.82
46.60,5.82
47.06,5.81
47.53,5.80
48.01,5.80
48.49,5.79
48.97,5.78
49.46,5.78
49.96,5.77
50.46,5.76
50.96,5.76
51.47,5.75
51.99,5.74
52.51,5.73
53.03,5.73
53.56,5.72
54.10,5.71
54.64,5.70
55.18,5.69
55.74,5.68
56.29,5.67
56.86,5.66
57.42,5.65
58.00,5.64
58.58,5.63
59.16,5.62
59.76,5.61
60.35,5.60
60.96,5.59
61.57,5.57
62.18,5.56
62.80,5.55
63.43,5.53
64.07,5.51
64.71,5.50
65.35,5.48
66.01,5.46
66.67,5.44
67.33,5.42
68.01,5.41
68.69,5.39
69.37,5.37
70.07,5.35
70.77,5.33
71.48,5.31
72.19,5.29
72.91,5.27
73.64,5.24
74.38,5.22
75.12,5.20
75.87,5.18
76.63,5.16
77.40,5.13
78.17,5.11
78.95,5.09
79.74,5.06
80.54,5.04
81.35,5.02
82.16,4.99
82.98,4.97
83.81,4.94
84.65,4.92
85.50,4.89
86.35,4.87
87.22,4.84
88.09,4.82
88.97,4.79
89.86,4.77
90.76,4.74
91.66,4.71
92.58,4.69
93.51,4.66
94.44,4.63
95.39,4.60
96.34,4.57
97.30,4.55
98.28,4.52
99.26,4.49
100.25,4.46
101.25,4.43
102.27,4.40
103.29,4.37
104.32,4.33
105.37,4.30
106.42,4.27
107.48,4.24
108.56,4.20
109.64,4.17
110.74,4.14
111.85,4.10
112.97,4.07
114.10,4.04
115.24,4.00
116.39,3.97
117.55,3.93
118.73,3.89
119.92,3.86
121.12,3.82
122.33,3.79
123.55,3.75
124.79,3.71
126.03,3.68
127.29,3.64
128.57,3.60
129.85,3.56
131.15,3.52
132.46,3.48
133.79,3.44
135.12,3.40
136.48,3.36
137.84,3.32
139.22,3.27
140.61,3.23
142.02,3.19
143.44,3.15
144.87,3.11
146.32,3.06
147.78,3.02
149.26,2.98
150.75,2.93
152.26,2.89
153.78,2.84
155.32,2.80
156.88,2.76
158.44,2.71
160.03,2.67
161.63,2.63
163.24,2.58
164.88,2.54
166.53,2.50
168.19,2.46
169.87,2.41
171.57,2.37
173.29,2.33
175.02,2.28
176.77,2.24
178.54,2.19
180.32,2.15
182.13,2.10
183.95,2.06
185.79,2.01
187.65,1.97
189.52,1.92
191.42,1.88
193.33,1.83
195.27,1.78
197.22,1.74
199.19,1.69
201.18,1.64
203.19,1.59
205.23,1.54
207.28,1.49
209.35,1.44
211.44,1.39
213.56,1.34
215.69,1.29
217.85,1.24
220.03,1.19
222.23,1.14
224.45,1.09
226.70,1.04
228.96,0.99
231.25,0.93
233.57,0.88
235.90,0.83
238.26,0.78
240.64,0.73
243.05,0.68
245.48,0.62
247.93,0.57
250.41,0.52
252.92,0.47
255.45,0.42
258.00,0.36
260.58,0.31
263.19,0.26
265.82,0.21
268.48,0.16
271.16,0.11
273.87,0.06
276.61,0.00
279.38,-0.05
282.17,-0.10
284.99,-0.15
287.84,-0.20
290.72,-0.25
293.63,-0.30
296.57,-0.35
299.53,-0.40
302.53,-0.45
305.55,-0.50
308.61,-0.55
311.69,-0.60
314.81,-0.65
317.96,-0.70
321.14,-0.75
324.35,-0.79
327.59,-0.84
330.87,-0.89
334.18,-0.93
337.52,-0.98
340.90,-1.03
344.30,-1.07
347.75,-1.11
351.23,-1.16
354.74,-1.20
358.28,-1.24
361.87,-1.29
365.49,-1.33
369.14,-1.37
372.83,-1.41
376.56,-1.45
380.33,-1.49
384.13,-1.53
387.97,-1.57
391.85,-1.60
395.77,-1.64
399.73,-1.68
403.72,-1.71
407.76,-1.74
411.84,-1.78
415.96,-1.81
420.12,-1.84
424.32,-1.87
428.56,-1.89
432.85,-1.92
437.18,-1.95
441.55,-1.97
445.96,-2.00
450.42,-2.02
454.93,-2.04
459.48,-2.06
464.07,-2.08
468.71,-2.09
473.40,-2.11
478.13,-2.12
482.91,-2.13
487.74,-2.14
492.62,-2.15
497.55,-2.16
502.52,-2.16
507.55,-2.17
512.62,-2.17
517.75,-2.17
522.93,-2.17
528.16,-2.17
533.44,-2.16
538.77,-2.16
544.16,-2.15
549.60,-2.14
555.10,-2.13
560.65,-2.12
566.25,-2.11
571.92,-2.10
577.64,-2.09
583.41,-2.07
589.25,-2.06
595.14,-2.04
601.09,-2.03
607.10,-2.01
613.17,-1.99
619.30,-1.97
625.50,-1.95
631.75,-1.94
638.07,-1.92
644.45,-1.90
650.89,-1.87
657.40,-1.85
663.98,-1.83
670.62,-1.81
677.32,-1.79
684.10,-1.77
690.94,-1.74
697.85,-1.72
704.83,-1.70
711.87,-1.67
718.99,-1.65
726.18,-1.63
733.44,-1.60
740.78,-1.57
748.19,-1.55
755.67,-1.52
763.23,-1.49
770.86,-1.46
778.57,-1.44
786.35,-1.41
794.22,-1.38
802.16,-1.35
810.18,-1.32
818.28,-1.29
826.46,-1.25
834.73,-1.22
843.08,-1.18
851.51,-1.13
860.02,-1.07
868.62,-1.01
877.31,-0.94
886.08,-0.87
894.94,-0.80
903.89,-0.74
912.93,-0.67
922.06,-0.61
931.28,-0.55
940.59,-0.48
950.00,-0.41
959.50,-0.34
969.09,-0.26
978.78,-0.18
988.57,-0.10
998.46,-0.01
1008.44,0.07
1018.53,0.15
1028.71,0.23
1039.00,0.32
1049.39,0.40
1059.88,0.49
1070.48,0.58
1081.19,0.67
1092.00,0.76
1102.92,0.85
1113.95,0.94
1125.09,1.04
1136.34,1.14
1147.70,1.23
1159.18,1.33
1170.77,1.43
1182.48,1.53
1194.30,1.63
1206.25,1.73
1218.31,1.83
1230.49,1.94
1242.80,2.04
1255.22,2.15
1267.78,2.26
1280.45,2.37
1293.26,2.48
1306.19,2.60
1319.25,2.71
1332.45,2.83
1345.77,2.94
1359.23,3.06
1372.82,3.18
1386.55,3.31
1400.41,3.43
1414.42,3.55
1428.56,3.68
1442.85,3.81
1457.28,3.94
1471.85,4.07
1486.57,4.20
1501.43,4.33
1516.45,4.47
1531.61,4.60
1546.93,4.74
1562.40,4.88
1578.02,5.02
1593.80,5.16
1609.74,5.30
1625.84,5.44
1642.10,5.59
1658.52,5.73
1675.10,5.88
1691.85,6.02
1708.77,6.15
1725.86,6.29
1743.12,6.42
1760.55,6.55
1778.15,6.67
1795.94,6.79
1813.90,6.89
1832.03,7.00
1850.36,7.09
1868.86,7.17
1887.55,7.25
1906.42,7.31
1925.49,7.37
1944.74,7.41
1964.19,7.44
1983.83,7.46
2003.67,7.46
2023.71,7.45
2043.94,7.43
2064.38,7.40
2085.03,7.36
2105.88,7.30
2126.94,7.24
2148.20,7.16
2169.69,7.08
2191.38,6.99
2213.30,6.89
2235.43,6.78
2257.78,6.67
2280.36,6.56
2303.17,6.44
2326.20,6.32
2349.46,6.20
2372.95,6.08
2396.68,5.96
2420.65,5.84
2444.86,5.73
2469.31,5.61
2494.00,5.51
2518.94,5.41
2544.13,5.31
2569.57,5.22
2595.27,5.14
2621.22,5.07
2647.43,5.00
2673.90,4.94
2700.64,4.89
2727.65,4.85
2754.93,4.81
2782.48,4.79
2810.30,4.77
2838.40,4.76
2866.79,4.75
2895.46,4.75
2924.41,4.75
2953.65,4.75
2983.19,4.74
3013.02,4.73
3043.15,4.70
3073.58,4.65
3104.32,4.58
3135.36,4.49
3166.72,4.38
3198.38,4.26
3230.37,4.14
3262.67,4.02
3295.30,3.90
3328.25,3.82
3361.53,3.75
3395.15,3.71
3429.10,3.71
3463.39,3.73
3498.03,3.78
3533.01,3.87
3568.34,3.98
3604.02,4.12
3640.06,4.29
3676.46,4.48
3713.22,4.68
3750.36,4.90
3787.86,5.13
3825.74,5.36
3864.00,5.59
3902.64,5.80
3941.66,6.01
3981.08,6.18
4020.89,6.31
4061.10,6.40
4101.71,6.42
4142.73,6.39
4184.15,6.31
4226.00,6.14
4268.26,5.94
4310.94,5.69
4354.05,5.40
4397.59,5.11
4441.56,4.82
4485.98,4.58
4530.84,4.40
4576.15,4.30
4621.91,4.25
4668.13,4.28
4714.81,4.35
4761.96,4.44
4809.58,4.54
4857.67,4.62
4906.25,4.68
4955.31,4.71
5004.87,4.71
5054.91,4.66
5105.46,4.59
5156.52,4.48
5208.08,4.35
5260.16,4.21
5312.77,4.06
5365.89,3.92
5419.55,3.79
5473.75,3.69
5528.49,3.61
5583.77,3.55
5639.61,3.48
5696.00,3.41
5752.96,3.35
5810.49,3.29
5868.60,3.26
5927.28,3.26
5986.56,3.27
6046.42,3.31
6106.89,3.36
6167.96,3.44
6229.64,3.52
6291.93,3.62
6354.85,3.72
6418.40,3.83
6482.58,3.93
6547.41,4.04
6612.88,4.14
6679.01,4.25
6745.80,4.38
6813.26,4.52
6881.39,4.69
6950.21,4.92
7019.71,5.18
7089.91,5.51
7160.81,5.92
7232.41,6.38
7304.74,6.89
7377.79,7.47
7451.56,8.07
7526.08,8.67
7601.34,9.26
7677.35,9.78
7754.13,10.28
7831.67,10.62
7909.98,10.88
7989.08,11.01
8068.98,10.97
8149.67,10.82
8231.16,10.54
8313.47,10.13
8396.61,9.65
8480.57,9.09
8565.38,8.48
8651.03,7.86
8737.54,7.22
8824.92,6.61
8913.17,6.03
9002.30,5.46
9092.32,4.97
9183.25,4.53
9275.08,4.14
9367.83,3.82
9461.51,3.58
9556.12,3.41
9651.68,3.30
9748.20,3.25
9845.68,3.28
9944.14,3.36
10043.58,3.50
10144.02,3.67
10245.46,3.89
10347.91,4.12
10451.39,4.37
10555.91,4.63
10661.46,4.87
10768.08,5.09
10875.76,5.28
10984.52,5.41
11094.36,5.50
11205.31,5.52
11317.36,5.44
11430.53,5.32
11544.84,5.10
11660.29,4.83
11776.89,4.52
11894.66,4.15
12013.60,3.78
12133.74,3.40
12255.08,3.02
12377.63,2.64
12501.41,2.25
12626.42,1.83
12752.68,1.35
12880.21,0.78
13009.01,0.15
13139.10,-0.47
13270.49,-1.25
13403.20,-2.09
13537.23,-3.06
13672.60,-4.10
13809.33,-5.22
13947.42,-6.48
14086.90,-7.86
14227.77,-9.32
14370.04,-10.89
14513.74,-12.61
14658.88,-14.51
14805.47,-16.41
14953.52,-18.28
15103.06,-19.58
15254.09,-20.60
15406.63,-20.63
15560.70,-20.50
15716.30,-20.09
15873.47,-19.67
16032.20,-19.27
16192.52,-18.99
16354.45,-18.74
16517.99,-18.52
16683.17,-18.30
16850.01,-18.07
17018.51,-17.83
17188.69,-17.59
17360.58,-17.37
17534.18,-17.18
17709.53,-17.04
17886.62,-16.88
18065.49,-16.63
18246.14,-16.21
18428.60,-15.48
18612.89,-14.76
18799.02,-14.07
18987.01,-13.49
19176.88,-13.09
19368.65,-12.82
19562.33,-12.71
19757.96,-12.74
19955.54,-12.82
