frequency,raw,smoothed,error,error_smoothed,equalization,parametric_eq,fixed_band_eq,equalized_raw,equalized_smoothed,target
20.00,5.43,5.43,-2.05,-2.05,2.05,1.21,0.16,7.48,7.48,7.48
20.20,5.48,5.49,-2.00,-1.99,1.99,1.20,0.16,7.48,7.48,7.48
20.40,5.54,5.54,-1.94,-1.94,1.94,1.18,0.17,7.48,7.48,7.48
20.61,5.59,5.59,-1.89,-1.88,1.88,1.17,0.18,7.47,7.48,7.48
20.81,5.65,5.65,-1.82,-1.83,1.83,1.15,0.18,7.48,7.48,7.48
21.02,5.70,5.71,-1.77,-1.77,1.77,1.14,0.19,7.47,7.48,7.48
21.23,5.76,5.76,-1.71,-1.72,1.72,1.12,0.20,7.48,7.48,7.48
21.44,5.81,5.81,-1.66,-1.66,1.66,1.11,0.21,7.48,7.48,7.47
21.66,5.86,5.86,-1.61,-1.61,1.61,1.09,0.21,7.47,7.47,7.47
21.87,5.91,5.91,-1.56,-1.56,1.56,1.07,0.22,7.47,7.47,7.47
22.09,5.96,5.97,-1.51,-1.51,1.51,1.05,0.23,7.47,7.47,7.47
22.31,6.02,6.02,-1.45,-1.46,1.46,1.04,0.24,7.48,7.47,7.47
22.54,6.06,6.07,-1.41,-1.41,1.41,1.02,0.25,7.47,7.47,7.47
22.76,6.11,6.11,-1.36,-1.36,1.36,1.00,0.25,7.47,7.47,7.47
22.99,6.16,6.16,-1.31,-1.31,1.31,0.98,0.26,7.47,7.47,7.47
23.22,6.21,6.21,-1.26,-1.26,1.26,0.96,0.27,7.47,7.47,7.47
23.45,6.26,6.26,-1.20,-1.21,1.21,0.94,0.28,7.47,7.47,7.47
23.69,6.30,6.31,-1.16,-1.16,1.16,0.92,0.29,7.46,7.47,7.47
23.92,6.35,6.35,-1.11,-1.11,1.11,0.90,0.30,7.46,7.47,7.46
24.16,6.40,6.40,-1.06,-1.07,1.07,0.88,0.31,7.47,7.46,7.46
24.40,6.44,6.44,-1.02,-1.02,1.02,0.86,0.32,7.46,7.46,7.46
24.65,6.48,6.49,-0.98,-0.97,0.97,0.84,0.33,7.46,7.46,7.46
24.89,6.53,6.53,-0.93,-0.93,0.93,0.82,0.34,7.46,7.46,7.46
25.14,6.57,6.57,-0.89,-0.89,0.89,0.80,0.35,7.46,7.46,7.46
25.39,6.61,6.61,-0.84,-0.84,0.84,0.77,0.36,7.46,7.46,7.46
25.65,6.65,6.65,-0.80,-0.80,0.80,0.75,0.37,7.45,7.45,7.46
25.91,6.69,6.69,-0.76,-0.76,0.76,0.73,0.38,7.45,7.45,7.45
26.16,6.73,6.73,-0.72,-0.72,0.72,0.70,0.39,7.45,7.45,7.45
26.43,6.77,6.77,-0.68,-0.68,0.68,0.68,0.40,7.45,7.45,7.45
26.69,6.81,6.81,-0.64,-0.64,0.64,0.65,0.40,7.45,7.45,7.45
26.96,6.85,6.85,-0.60,-0.59,0.60,0.63,0.41,7.45,7.45,7.45
27.23,6.89,6.89,-0.55,-0.55,0.56,0.60,0.42,7.45,7.45,7.45
27.50,6.93,6.93,-0.51,-0.51,0.52,0.58,0.43,7.45,7.45,7.44
27.77,6.96,6.97,-0.48,-0.48,0.48,0.55,0.43,7.44,7.44,7.44
28.05,7.00,7.00,-0.44,-0.44,0.44,0.52,0.44,7.44,7.44,7.44
28.33,7.03,7.04,-0.41,-0.40,0.40,0.49,0.44,7.43,7.44,7.44
28.62,7.07,7.07,-0.36,-0.37,0.37,0.46,0.44,7.44,7.43,7.44
28.90,7.10,7.10,-0.33,-0.33,0.33,0.43,0.45,7.43,7.43,7.43
29.19,7.13,7.14,-0.30,-0.29,0.29,0.40,0.45,7.43,7.43,7.43
29.48,7.17,7.17,-0.26,-0.26,0.26,0.37,0.45,7.43,7.43,7.43
29.78,7.20,7.20,-0.22,-0.22,0.23,0.34,0.45,7.43,7.43,7.43
30.08,7.23,7.23,-0.19,-0.19,0.19,0.31,0.44,7.42,7.42,7.42
30.38,7.26,7.26,-0.16,-0.16,0.16,0.28,0.44,7.42,7.42,7.42
30.68,7.29,7.29,-0.13,-0.13,0.12,0.25,0.43,7.42,7.42,7.42
30.99,7.32,7.32,-0.09,-0.09,0.09,0.21,0.43,7.41,7.41,7.41
31.30,7.35,7.35,-0.06,-0.06,0.06,0.18,0.42,7.41,7.41,7.41
31.61,7.38,7.38,-0.03,-0.03,0.03,0.15,0.41,7.41,7.41,7.41
31.93,7.41,7.41,0.01,0.00,-0.00,0.11,0.39,7.41,7.40,7.41
32.24,7.43,7.44,0.03,0.03,-0.04,0.07,0.38,7.40,7.40,7.40
32.57,7.46,7.46,0.06,0.07,-0.07,0.04,0.37,7.40,7.40,7.40
32.89,7.49,7.49,0.10,0.10,-0.10,0.00,0.35,7.40,7.39,7.39
33.22,7.52,7.52,0.13,0.13,-0.13,-0.03,0.33,7.40,7.39,7.39
33.55,7.54,7.55,0.16,0.16,-0.16,-0.07,0.31,7.39,7.39,7.39
33.89,7.57,7.57,0.19,0.19,-0.19,-0.11,0.29,7.39,7.38,7.38
34.23,7.59,7.59,0.21,0.21,-0.21,-0.14,0.27,7.38,7.38,7.38
34.57,7.61,7.62,0.24,0.24,-0.24,-0.18,0.25,7.37,7.37,7.37
34.92,7.64,7.64,0.27,0.27,-0.27,-0.22,0.22,7.37,7.37,7.37
35.27,7.66,7.66,0.30,0.30,-0.30,-0.25,0.20,7.36,7.36,7.37
35.62,7.68,7.68,0.32,0.32,-0.32,-0.29,0.17,7.36,7.36,7.36
35.97,7.70,7.71,0.35,0.35,-0.35,-0.32,0.15,7.35,7.35,7.36
36.33,7.73,7.73,0.38,0.38,-0.38,-0.36,0.12,7.35,7.35,7.35
36.70,7.75,7.75,0.41,0.41,-0.40,-0.39,0.09,7.35,7.35,7.34
37.06,7.77,7.77,0.43,0.43,-0.43,-0.43,0.06,7.34,7.34,7.34
37.43,7.79,7.79,0.46,0.46,-0.46,-0.46,0.03,7.34,7.33,7.33
37.81,7.80,7.81,0.48,0.48,-0.48,-0.49,-0.00,7.32,7.32,7.33
38.19,7.82,7.82,0.50,0.50,-0.51,-0.52,-0.03,7.32,7.32,7.32
38.57,7.84,7.84,0.53,0.53,-0.53,-0.55,-0.06,7.31,7.31,7.31
38.95,7.86,7.86,0.56,0.55,-0.55,-0.57,-0.10,7.31,7.31,7.31
39.34,7.88,7.88,0.58,0.58,-0.58,-0.60,-0.13,7.31,7.30,7.30
39.74,7.89,7.90,0.60,0.60,-0.60,-0.63,-0.16,7.29,7.29,7.29
40.14,7.91,7.91,0.63,0.63,-0.62,-0.65,-0.20,7.29,7.29,7.29
40.54,7.92,7.92,0.64,0.65,-0.65,-0.67,-0.23,7.27,7.28,7.28
40.94,7.94,7.94,0.67,0.67,-0.67,-0.70,-0.26,7.27,7.27,7.27
41.35,7.95,7.96,0.69,0.69,-0.69,-0.72,-0.30,7.26,7.26,7.26
41.76,7.97,7.97,0.72,0.72,-0.72,-0.74,-0.33,7.26,7.25,7.25
42.18,7.98,7.98,0.74,0.74,-0.74,-0.76,-0.37,7.24,7.24,7.24
42.60,7.99,8.00,0.76,0.76,-0.76,-0.78,-0.41,7.23,7.23,7.23
43.03,8.01,8.01,0.79,0.79,-0.78,-0.80,-0.44,7.23,7.22,7.22
43.46,8.02,8.02,0.81,0.81,-0.81,-0.82,-0.48,7.21,7.21,7.21
43.90,8.03,8.03,0.83,0.83,-0.83,-0.84,-0.52,7.20,7.20,7.20
44.33,8.04,8.04,0.85,0.85,-0.85,-0.85,-0.55,7.19,7.19,7.19
44.78,8.05,8.06,0.87,0.88,-0.87,-0.87,-0.59,7.18,7.18,7.18
45.23,8.07,8.07,0.90,0.90,-0.90,-0.89,-0.63,7.18,7.17,7.17
45.68,8.08,8.08,0.92,0.92,-0.92,-0.91,-0.67,7.16,7.16,7.16
46.13,8.08,8.09,0.94,0.94,-0.94,-0.93,-0.70,7.14,7.15,7.15
46.60,8.09,8.09,0.96,0.96,-0.96,-0.95,-0.74,7.13,7.13,7.13
47.06,8.10,8.10,0.98,0.98,-0.99,-0.97,-0.78,7.12,7.12,7.12
47.53,8.11,8.11,1.01,1.01,-1.01,-0.99,-0.82,7.10,7.11,7.11
48.01,8.12,8.12,1.03,1.03,-1.03,-1.02,-0.86,7.09,7.09,7.09
48.49,8.13,8.13,1.06,1.05,-1.05,-1.04,-0.90,7.08,7.08,7.08
48.97,8.13,8.14,1.07,1.08,-1.08,-1.06,-0.94,7.06,7.06,7.06
49.46,8.14,8.14,1.10,1.10,-1.10,-1.08,-0.98,7.04,7.04,7.04
49.96,8.15,8.15,1.12,1.12,-1.12,-1.10,-1.02,7.03,7.03,7.03
50.46,8.15,8.16,1.14,1.14,-1.14,-1.13,-1.06,7.01,7.01,7.01
50.96,8.16,8.16,1.17,1.17,-1.17,-1.15,-1.10,7.00,6.99,6.99
51.47,8.16,8.17,1.19,1.19,-1.19,-1.17,-1.15,6.97,6.98,6.98
51.99,8.17,8.17,1.21,1.21,-1.21,-1.20,-1.19,6.96,6.96,6.96
52.51,8.17,8.17,1.23,1.23,-1.23,-1.22,-1.23,6.94,6.94,6.94
53.03,8.17,8.18,1.25,1.26,-1.26,-1.25,-1.27,6.91,6.92,6.92
53.56,8.18,8.18,1.28,1.28,-1.28,-1.27,-1.31,6.90,6.90,6.90
54.10,8.18,8.18,1.31,1.31,-1.31,-1.30,-1.35,6.88,6.88,6.88
54.64,8.18,8.19,1.33,1.33,-1.33,-1.32,-1.39,6.85,6.85,6.85
55.18,8.19,8.19,1.36,1.36,-1.36,-1.35,-1.43,6.84,6.83,6.83
55.74,8.19,8.19,1.38,1.38,-1.38,-1.38,-1.47,6.81,6.81,6.81
56.29,8.19,8.19,1.41,1.41,-1.41,-1.40,-1.51,6.78,6.79,6.78
56.86,8.19,8.19,1.43,1.43,-1.43,-1.43,-1.55,6.76,6.76,6.76
57.42,8.19,8.19,1.46,1.46,-1.46,-1.46,-1.59,6.73,6.73,6.73
58.00,8.19,8.19,1.48,1.48,-1.49,-1.48,-1.63,6.71,6.71,6.71
58.58,8.19,8.19,1.51,1.51,-1.51,-1.51,-1.66,6.68,6.68,6.68
59.16,8.19,8.19,1.54,1.54,-1.54,-1.54,-1.70,6.65,6.65,6.65
59.76,8.19,8.19,1.57,1.57,-1.57,-1.56,-1.73,6.62,6.62,6.62
60.35,8.19,8.19,1.60,1.60,-1.60,-1.59,-1.76,6.59,6.59,6.59
60.96,8.19,8.19,1.63,1.63,-1.63,-1.62,-1.80,6.56,6.56,6.56
61.57,8.19,8.19,1.66,1.66,-1.66,-1.65,-1.83,6.54,6.53,6.53
62.18,8.18,8.19,1.68,1.69,-1.69,-1.68,-1.86,6.50,6.50,6.50
62.80,8.18,8.18,1.72,1.72,-1.72,-1.71,-1.89,6.47,6.47,6.47
63.43,8.18,8.18,1.75,1.75,-1.75,-1.74,-1.92,6.43,6.43,6.43
64.07,8.17,8.18,1.78,1.78,-1.78,-1.77,-1.94,6.39,6.40,6.40
64.71,8.17,8.17,1.81,1.81,-1.81,-1.80,-1.97,6.36,6.36,6.36
65.35,8.16,8.17,1.84,1.84,-1.84,-1.84,-2.00,6.32,6.32,6.32
66.01,8.16,8.16,1.88,1.88,-1.88,-1.87,-2.02,6.29,6.29,6.28
66.67,8.16,8.16,1.92,1.91,-1.91,-1.90,-2.05,6.25,6.25,6.25
67.33,8.15,8.15,1.95,1.95,-1.95,-1.94,-2.07,6.21,6.21,6.21
68.01,8.14,8.15,1.98,1.98,-1.98,-1.98,-2.09,6.16,6.17,6.16
68.69,8.14,8.14,2.02,2.02,-2.02,-2.01,-2.12,6.13,6.12,6.12
69.37,8.13,8.13,2.05,2.05,-2.05,-2.05,-2.14,6.08,6.08,6.08
70.07,8.12,8.13,2.09,2.09,-2.09,-2.09,-2.16,6.03,6.03,6.04
70.77,8.12,8.12,2.13,2.13,-2.13,-2.13,-2.19,5.99,5.99,5.99
71.48,8.11,8.12,2.17,2.17,-2.17,-2.17,-2.21,5.94,5.94,5.94
72.19,8.11,8.11,2.21,2.21,-2.21,-2.22,-2.23,5.90,5.90,5.90
72.91,8.10,8.10,2.25,2.25,-2.25,-2.26,-2.26,5.85,5.85,5.85
73.64,8.09,8.10,2.29,2.30,-2.30,-2.31,-2.28,5.80,5.80,5.80
74.38,8.09,8.09,2.34,2.34,-2.34,-2.35,-2.31,5.75,5.75,5.75
75.12,8.08,8.08,2.38,2.38,-2.38,-2.40,-2.34,5.70,5.70,5.70
75.87,8.07,8.07,2.43,2.43,-2.42,-2.45,-2.36,5.65,5.65,5.65
76.63,8.06,8.06,2.47,2.47,-2.47,-2.50,-2.39,5.59,5.59,5.59
77.40,8.05,8.05,2.51,2.51,-2.51,-2.55,-2.43,5.54,5.54,5.54
78.17,8.03,8.04,2.55,2.55,-2.55,-2.60,-2.46,5.48,5.48,5.48
78.95,8.02,8.02,2.60,2.60,-2.60,-2.65,-2.49,5.42,5.42,5.43
79.74,8.01,8.01,2.64,2.64,-2.64,-2.70,-2.53,5.37,5.37,5.37
80.54,8.00,8.00,2.69,2.69,-2.69,-2.75,-2.57,5.31,5.31,5.31
81.35,7.99,7.99,2.74,2.74,-2.74,-2.81,-2.60,5.25,5.25,5.25
82.16,7.98,7.98,2.79,2.79,-2.79,-2.86,-2.65,5.20,5.19,5.19
82.98,7.96,7.97,2.83,2.84,-2.83,-2.91,-2.69,5.13,5.13,5.13
83.81,7.95,7.95,2.88,2.88,-2.88,-2.97,-2.74,5.07,5.07,5.07
84.65,7.94,7.94,2.94,2.93,-2.93,-3.02,-2.78,5.01,5.00,5.01
85.50,7.92,7.93,2.98,2.98,-2.98,-3.07,-2.83,4.94,4.94,4.94
86.35,7.91,7.91,3.03,3.03,-3.03,-3.12,-2.88,4.88,4.88,4.88
87.22,7.90,7.90,3.09,3.09,-3.09,-3.18,-2.94,4.82,4.81,4.81
88.09,7.88,7.89,3.14,3.14,-3.14,-3.23,-2.99,4.75,4.75,4.75
88.97,7.87,7.87,3.19,3.19,-3.19,-3.28,-3.05,4.68,4.68,4.68
89.86,7.85,7.85,3.24,3.24,-3.24,-3.33,-3.11,4.61,4.61,4.61
90.76,7.84,7.84,3.30,3.30,-3.30,-3.39,-3.18,4.55,4.54,4.54
91.66,7.82,7.82,3.35,3.35,-3.35,-3.44,-3.24,4.47,4.47,4.48
92.58,7.81,7.81,3.41,3.40,-3.40,-3.49,-3.31,4.41,4.41,4.41
93.51,7.79,7.80,3.46,3.46,-3.46,-3.54,-3.38,4.34,4.34,4.34
94.44,7.78,7.78,3.52,3.51,-3.51,-3.59,-3.45,4.27,4.27,4.27
95.39,7.76,7.76,3.57,3.56,-3.57,-3.64,-3.53,4.20,4.20,4.20
96.34,7.74,7.74,3.62,3.62,-3.62,-3.69,-3.60,4.12,4.12,4.13
97.30,7.72,7.73,3.67,3.67,-3.67,-3.74,-3.68,4.05,4.05,4.05
98.28,7.71,7.71,3.73,3.73,-3.73,-3.79,-3.76,3.99,3.98,3.98
99.26,7.69,7.69,3.78,3.78,-3.78,-3.84,-3.84,3.91,3.91,3.91
100.25,7.67,7.67,3.84,3.84,-3.83,-3.88,-3.93,3.84,3.84,3.84
101.25,7.65,7.65,3.89,3.89,-3.89,-3.93,-4.01,3.76,3.76,3.76
102.27,7.63,7.63,3.94,3.94,-3.94,-3.98,-4.09,3.69,3.69,3.69
103.29,7.61,7.61,3.99,3.99,-4.00,-4.02,-4.18,3.62,3.62,3.62
104.32,7.59,7.60,4.05,4.05,-4.05,-4.07,-4.27,3.54,3.55,3.55
105.37,7.58,7.58,4.11,4.11,-4.10,-4.11,-4.35,3.48,3.48,3.47
106.42,7.56,7.56,4.16,4.16,-4.16,-4.16,-4.44,3.41,3.40,3.40
107.48,7.53,7.54,4.21,4.21,-4.21,-4.20,-4.52,3.32,3.33,3.33
108.56,7.51,7.51,4.26,4.26,-4.26,-4.25,-4.60,3.25,3.25,3.25
109.64,7.49,7.49,4.31,4.31,-4.31,-4.29,-4.69,3.18,3.18,3.18
110.74,7.47,7.47,4.36,4.36,-4.36,-4.33,-4.77,3.11,3.11,3.11
111.85,7.45,7.45,4.42,4.42,-4.42,-4.37,-4.84,3.04,3.04,3.04
112.97,7.43,7.43,4.47,4.47,-4.47,-4.41,-4.92,2.97,2.97,2.96
114.10,7.41,7.41,4.52,4.52,-4.52,-4.45,-4.99,2.90,2.89,2.89
115.24,7.38,7.39,4.56,4.56,-4.57,-4.49,-5.06,2.82,2.82,2.82
116.39,7.36,7.36,4.61,4.61,-4.61,-4.53,-5.12,2.75,2.75,2.75
117.55,7.34,7.34,4.66,4.66,-4.66,-4.57,-5.18,2.68,2.68,2.68
118.73,7.32,7.32,4.71,4.71,-4.71,-4.60,-5.23,2.61,2.61,2.61
119.92,7.29,7.30,4.75,4.75,-4.75,-4.64,-5.28,2.54,2.54,2.54
121.12,7.27,7.27,4.80,4.80,-4.80,-4.68,-5.32,2.47,2.47,2.47
122.33,7.24,7.24,4.84,4.84,-4.84,-4.71,-5.36,2.40,2.40,2.40
123.55,7.22,7.22,4.89,4.88,-4.89,-4.75,-5.39,2.34,2.34,2.34
124.79,7.19,7.19,4.92,4.93,-4.93,-4.78,-5.41,2.27,2.27,2.27
126.03,7.17,7.17,4.97,4.97,-4.97,-4.81,-5.43,2.20,2.20,2.20
127.29,7.14,7.15,5.00,5.01,-5.01,-4.84,-5.44,2.13,2.14,2.14
128.57,7.12,7.12,5.05,5.05,-5.05,-4.87,-5.45,2.08,2.07,2.07
129.85,7.09,7.09,5.08,5.08,-5.08,-4.90,-5.45,2.01,2.01,2.01
131.15,7.06,7.07,5.12,5.12,-5.12,-4.93,-5.44,1.94,1.95,1.95
132.46,7.04,7.04,5.16,5.16,-5.15,-4.96,-5.43,1.89,1.88,1.88
133.79,7.01,7.01,5.19,5.19,-5.19,-4.99,-5.42,1.82,1.82,1.82
135.12,6.98,6.98,5.22,5.22,-5.22,-5.01,-5.39,1.76,1.76,1.76
136.48,6.95,6.95,5.25,5.25,-5.25,-5.04,-5.37,1.70,1.70,1.70
137.84,6.92,6.93,5.28,5.28,-5.28,-5.06,-5.34,1.64,1.64,1.64
139.22,6.90,6.90,5.32,5.31,-5.31,-5.09,-5.31,1.59,1.59,1.59
140.61,6.87,6.87,5.34,5.34,-5.34,-5.11,-5.28,1.53,1.53,1.53
142.02,6.84,6.84,5.37,5.37,-5.37,-5.13,-5.24,1.47,1.48,1.47
143.44,6.81,6.81,5.39,5.39,-5.39,-5.16,-5.20,1.42,1.42,1.42
144.87,6.78,6.78,5.42,5.42,-5.42,-5.18,-5.16,1.37,1.37,1.37
146.32,6.75,6.75,5.44,5.44,-5.44,-5.20,-5.13,1.31,1.31,1.31
147.78,6.72,6.72,5.46,5.46,-5.46,-5.21,-5.09,1.26,1.26,1.26
149.26,6.68,6.69,5.47,5.47,-5.48,-5.23,-5.05,1.21,1.21,1.21
150.75,6.65,6.65,5.49,5.49,-5.49,-5.25,-5.01,1.16,1.16,1.16
152.26,6.62,6.62,5.51,5.51,-5.51,-5.27,-4.97,1.11,1.11,1.11
153.78,6.59,6.59,5.53,5.53,-5.52,-5.28,-4.93,1.07,1.07,1.07
155.32,6.56,6.56,5.54,5.54,-5.54,-5.29,-4.90,1.02,1.02,1.02
156.88,6.52,6.53,5.55,5.55,-5.55,-5.31,-4.87,0.97,0.97,0.97
158.44,6.49,6.49,5.56,5.56,-5.57,-5.32,-4.84,0.93,0.93,0.93
160.03,6.46,6.46,5.58,5.58,-5.58,-5.33,-4.81,0.88,0.88,0.89
161.63,6.42,6.43,5.59,5.59,-5.59,-5.34,-4.78,0.84,0.84,0.83
163.24,6.39,6.39,5.60,5.60,-5.60,-5.35,-4.76,0.80,0.80,0.79
164.88,6.35,6.36,5.60,5.60,-5.60,-5.36,-4.74,0.75,0.75,0.75
166.53,6.32,6.32,5.61,5.61,-5.61,-5.37,-4.72,0.72,0.71,0.71
168.19,6.28,6.28,5.61,5.61,-5.61,-5.38,-4.71,0.67,0.67,0.67
169.87,6.24,6.25,5.61,5.61,-5.61,-5.38,-4.70,0.63,0.64,0.64
171.57,6.21,6.21,5.61,5.61,-5.61,-5.39,-4.70,0.60,0.60,0.60
173.29,6.17,6.17,5.61,5.61,-5.61,-5.39,-4.70,0.57,0.57,0.56
175.02,6.13,6.13,5.60,5.60,-5.60,-5.40,-4.70,0.53,0.53,0.53
176.77,6.09,6.09,5.60,5.60,-5.60,-5.40,-4.70,0.50,0.50,0.50
178.54,6.05,6.05,5.59,5.59,-5.59,-5.40,-4.71,0.46,0.46,0.46
180.32,6.01,6.01,5.58,5.58,-5.58,-5.40,-4.72,0.43,0.43,0.43
182.13,5.97,5.97,5.57,5.57,-5.57,-5.40,-4.74,0.40,0.40,0.40
183.95,5.93,5.93,5.56,5.56,-5.56,-5.40,-4.76,0.37,0.37,0.37
185.79,5.89,5.89,5.55,5.55,-5.55,-5.40,-4.78,0.34,0.34,0.34
187.65,5.85,5.85,5.54,5.54,-5.54,-5.40,-4.81,0.32,0.32,0.31
189.52,5.81,5.81,5.53,5.52,-5.52,-5.39,-4.84,0.29,0.29,0.29
191.42,5.76,5.77,5.50,5.51,-5.51,-5.39,-4.87,0.26,0.26,0.26
193.33,5.72,5.72,5.49,5.49,-5.49,-5.38,-4.91,0.23,0.23,0.23
195.27,5.68,5.68,5.47,5.47,-5.47,-5.38,-4.94,0.21,0.21,0.21
197.22,5.64,5.64,5.46,5.45,-5.45,-5.37,-4.99,0.19,0.19,0.18
199.19,5.59,5.60,5.43,5.44,-5.44,-5.36,-5.03,0.16,0.16,0.16
201.18,5.56,5.56,5.42,5.42,-5.42,-5.35,-5.08,0.14,0.14,0.14
203.19,5.52,5.52,5.41,5.40,-5.41,-5.35,-5.12,0.12,0.11,0.12
205.23,5.48,5.49,5.39,5.39,-5.39,-5.34,-5.17,0.09,0.09,0.09
207.28,5.45,5.45,5.38,5.38,-5.39,-5.32,-5.22,0.07,0.07,0.07
209.35,5.43,5.43,5.38,5.37,-5.38,-5.31,-5.28,0.05,0.05,0.05
211.44,5.40,5.41,5.37,5.37,-5.38,-5.30,-5.33,0.03,0.03,0.03
213.56,5.39,5.39,5.38,5.37,-5.38,-5.29,-5.38,0.02,0.01,0.02
215.69,5.37,5.37,5.38,5.37,-5.38,-5.27,-5.43,-0.00,-0.00,-0.00
217.85,5.35,5.36,5.37,5.38,-5.38,-5.26,-5.48,-0.02,-0.02,-0.02
220.03,5.34,5.34,5.38,5.38,-5.37,-5.24,-5.53,-0.03,-0.04,-0.04
222.23,5.32,5.32,5.38,5.38,-5.37,-5.22,-5.58,-0.05,-0.05,-0.05
224.45,5.30,5.30,5.37,5.37,-5.37,-5.21,-5.62,-0.06,-0.07,-0.07
226.70,5.27,5.27,5.36,5.36,-5.36,-5.19,-5.66,-0.08,-0.08,-0.09
228.96,5.24,5.24,5.34,5.34,-5.34,-5.17,-5.70,-0.10,-0.10,-0.10
231.25,5.21,5.21,5.33,5.33,-5.33,-5.15,-5.73,-0.11,-0.12,-0.12
233.57,5.17,5.17,5.30,5.31,-5.31,-5.13,-5.76,-0.13,-0.13,-0.13
235.90,5.13,5.13,5.28,5.28,-5.28,-5.11,-5.78,-0.15,-0.15,-0.15
238.26,5.09,5.09,5.26,5.26,-5.26,-5.08,-5.80,-0.17,-0.17,-0.17
240.64,5.05,5.05,5.23,5.23,-5.23,-5.06,-5.80,-0.18,-0.18,-0.18
243.05,5.01,5.01,5.20,5.20,-5.20,-5.04,-5.81,-0.19,-0.19,-0.19
245.48,4.97,4.97,5.17,5.17,-5.17,-5.01,-5.80,-0.20,-0.20,-0.20
247.93,4.92,4.93,5.14,5.14,-5.14,-4.98,-5.79,-0.22,-0.21,-0.21
250.41,4.88,4.88,5.11,5.10,-5.10,-4.96,-5.77,-0.22,-0.22,-0.22
252.92,4.83,4.83,5.07,5.07,-5.07,-4.93,-5.75,-0.23,-0.23,-0.23
255.45,4.78,4.78,5.03,5.03,-5.03,-4.90,-5.71,-0.25,-0.25,-0.25
258.00,4.73,4.73,4.99,4.99,-4.99,-4.87,-5.67,-0.26,-0.26,-0.25
260.58,4.68,4.68,4.95,4.95,-4.95,-4.84,-5.62,-0.27,-0.27,-0.26
263.19,4.63,4.63,4.91,4.91,-4.91,-4.81,-5.56,-0.27,-0.27,-0.27
265.82,4.58,4.58,4.86,4.87,-4.86,-4.78,-5.50,-0.28,-0.28,-0.28
268.48,4.53,4.53,4.82,4.82,-4.82,-4.75,-5.43,-0.29,-0.29,-0.29
271.16,4.48,4.48,4.78,4.78,-4.78,-4.71,-5.36,-0.30,-0.30,-0.30
273.87,4.42,4.43,4.73,4.73,-4.73,-4.68,-5.28,-0.31,-0.31,-0.31
276.61,4.37,4.37,4.69,4.69,-4.69,-4.65,-5.19,-0.32,-0.32,-0.31
279.38,4.32,4.32,4.64,4.64,-4.64,-4.61,-5.11,-0.32,-0.32,-0.32
282.17,4.27,4.27,4.60,4.60,-4.60,-4.57,-5.01,-0.32,-0.32,-0.33
284.99,4.22,4.22,4.55,4.55,-4.55,-4.54,-4.92,-0.32,-0.32,-0.33
287.84,4.17,4.17,4.49,4.50,-4.50,-4.50,-4.82,-0.32,-0.33,-0.32
290.72,4.11,4.12,4.44,4.44,-4.45,-4.46,-4.72,-0.33,-0.33,-0.33
293.63,4.06,4.06,4.40,4.39,-4.39,-4.42,-4.62,-0.33,-0.33,-0.34
296.57,4.01,4.01,4.34,4.34,-4.34,-4.38,-4.52,-0.33,-0.33,-0.33
299.53,3.96,3.96,4.29,4.29,-4.29,-4.33,-4.42,-0.33,-0.33,-0.33
302.53,3.90,3.91,4.23,4.24,-4.24,-4.29,-4.31,-0.33,-0.33,-0.33
305.55,3.85,3.85,4.18,4.18,-4.18,-4.25,-4.21,-0.33,-0.33,-0.33
308.61,3.80,3.80,4.14,4.13,-4.13,-4.20,-4.11,-0.33,-0.33,-0.33
311.69,3.74,3.75,4.07,4.08,-4.08,-4.16,-4.01,-0.33,-0.33,-0.33
314.81,3.69,3.69,4.02,4.02,-4.02,-4.11,-3.90,-0.33,-0.33,-0.33
317.96,3.64,3.64,3.97,3.97,-3.97,-4.07,-3.80,-0.33,-0.33,-0.33
321.14,3.58,3.59,3.91,3.91,-3.91,-4.02,-3.71,-0.33,-0.33,-0.33
324.35,3.53,3.53,3.86,3.86,-3.86,-3.97,-3.61,-0.33,-0.33,-0.33
327.59,3.48,3.48,3.80,3.80,-3.80,-3.92,-3.51,-0.32,-0.32,-0.32
330.87,3.42,3.43,3.75,3.75,-3.75,-3.87,-3.42,-0.32,-0.32,-0.32
334.18,3.37,3.37,3.69,3.69,-3.69,-3.82,-3.33,-0.32,-0.32,-0.32
337.52,3.31,3.31,3.63,3.63,-3.63,-3.77,-3.24,-0.32,-0.32,-0.32
340.90,3.26,3.26,3.58,3.57,-3.57,-3.71,-3.15,-0.31,-0.31,-0.32
344.30,3.20,3.20,3.51,3.52,-3.51,-3.66,-3.07,-0.31,-0.31,-0.31
347.75,3.15,3.15,3.45,3.45,-3.45,-3.60,-2.98,-0.30,-0.30,-0.30
351.23,3.09,3.10,3.40,3.39,-3.39,-3.55,-2.90,-0.30,-0.30,-0.31
354.74,3.04,3.04,3.33,3.33,-3.33,-3.49,-2.82,-0.29,-0.29,-0.29
358.28,2.98,2.98,3.27,3.27,-3.27,-3.43,-2.75,-0.29,-0.29,-0.29
361.87,2.92,2.93,3.21,3.21,-3.21,-3.37,-2.67,-0.29,-0.28,-0.28
365.49,2.87,2.87,3.15,3.15,-3.15,-3.32,-2.60,-0.28,-0.28,-0.28
369.14,2.81,2.81,3.09,3.09,-3.09,-3.26,-2.53,-0.27,-0.27,-0.28
372.83,2.75,2.76,3.01,3.02,-3.02,-3.19,-2.46,-0.27,-0.27,-0.26
376.56,2.70,2.70,2.97,2.96,-2.96,-3.13,-2.40,-0.26,-0.26,-0.26
380.33,2.64,2.64,2.90,2.90,-2.90,-3.07,-2.33,-0.26,-0.26,-0.26
384.13,2.58,2.58,2.84,2.84,-2.84,-3.01,-2.27,-0.25,-0.25,-0.26
387.97,2.52,2.53,2.77,2.77,-2.77,-2.94,-2.21,-0.25,-0.25,-0.25
391.85,2.47,2.47,2.71,2.71,-2.71,-2.88,-2.15,-0.24,-0.24,-0.23
395.77,2.41,2.41,2.65,2.64,-2.64,-2.81,-2.10,-0.23,-0.23,-0.24
399.73,2.35,2.35,2.58,2.58,-2.58,-2.74,-2.04,-0.23,-0.23,-0.23
403.72,2.29,2.29,2.51,2.52,-2.52,-2.67,-1.99,-0.22,-0.22,-0.22
407.76,2.23,2.23,2.45,2.45,-2.45,-2.60,-1.94,-0.22,-0.22,-0.22
411.84,2.17,2.17,2.39,2.39,-2.39,-2.53,-1.89,-0.22,-0.22,-0.21
415.96,2.11,2.12,2.32,2.32,-2.32,-2.46,-1.84,-0.21,-0.21,-0.20
420.12,2.06,2.06,2.27,2.26,-2.26,-2.39,-1.79,-0.20,-0.20,-0.21
424.32,2.00,2.00,2.20,2.20,-2.20,-2.32,-1.74,-0.19,-0.20,-0.20
428.56,1.94,1.94,2.13,2.13,-2.13,-2.25,-1.70,-0.19,-0.19,-0.19
432.85,1.88,1.88,2.06,2.07,-2.07,-2.18,-1.66,-0.18,-0.18,-0.18
437.18,1.82,1.82,2.00,2.00,-2.00,-2.10,-1.61,-0.18,-0.18,-0.18
441.55,1.76,1.76,1.94,1.93,-1.93,-2.03,-1.57,-0.17,-0.17,-0.17
445.96,1.70,1.70,1.87,1.86,-1.86,-1.95,-1.53,-0.16,-0.16,-0.16
450.42,1.64,1.64,1.79,1.79,-1.80,-1.88,-1.49,-0.15,-0.15,-0.15
454.93,1.58,1.58,1.72,1.72,-1.73,-1.80,-1.45,-0.15,-0.15,-0.14
459.48,1.52,1.53,1.65,1.66,-1.66,-1.72,-1.41,-0.14,-0.13,-0.13
464.07,1.47,1.47,1.60,1.60,-1.59,-1.65,-1.38,-0.12,-0.13,-0.13
468.71,1.41,1.41,1.53,1.53,-1.53,-1.57,-1.34,-0.12,-0.12,-0.12
473.40,1.35,1.35,1.46,1.46,-1.46,-1.49,-1.30,-0.11,-0.11,-0.11
478.13,1.29,1.29,1.40,1.40,-1.40,-1.41,-1.27,-0.10,-0.10,-0.10
482.91,1.23,1.24,1.33,1.33,-1.33,-1.34,-1.23,-0.10,-0.09,-0.09
487.74,1.18,1.18,1.27,1.26,-1.26,-1.26,-1.20,-0.08,-0.08,-0.08
492.62,1.12,1.12,1.20,1.20,-1.19,-1.18,-1.16,-0.07,-0.07,-0.08
497.55,1.06,1.06,1.13,1.13,-1.13,-1.10,-1.13,-0.06,-0.06,-0.07
502.52,1.00,1.00,1.06,1.06,-1.06,-1.02,-1.09,-0.06,-0.05,-0.06
507.55,0.94,0.94,0.98,0.99,-0.99,-0.95,-1.06,-0.05,-0.05,-0.04
512.62,0.89,0.89,0.92,0.92,-0.92,-0.87,-1.02,-0.03,-0.03,-0.03
517.75,0.83,0.84,0.85,0.85,-0.86,-0.79,-0.99,-0.02,-0.02,-0.02
522.93,0.78,0.78,0.79,0.79,-0.79,-0.72,-0.95,-0.01,-0.01,-0.01
528.16,0.72,0.72,0.72,0.72,-0.72,-0.64,-0.92,-0.00,-0.00,-0.00
