frequency,raw,smoothed,error,error_smoothed,equalization,parametric_eq,fixed_band_eq,equalized_raw,equalized_smoothed,target
20.00,1.84,1.84,-0.95,-0.95,0.97,0.78,0.05,2.81,2.81,2.80
20.20,1.87,1.88,-0.95,-0.95,0.95,0.77,0.06,2.83,2.83,2.83
20.40,1.91,1.91,-0.94,-0.94,0.94,0.77,0.06,2.85,2.85,2.85
20.61,1.95,1.95,-0.92,-0.93,0.92,0.76,0.06,2.87,2.87,2.87
20.81,1.99,1.99,-0.91,-0.91,0.90,0.75,0.06,2.89,2.89,2.90
21.02,2.03,2.04,-0.90,-0.89,0.88,0.74,0.07,2.91,2.91,2.93
21.23,2.08,2.08,-0.86,-0.87,0.86,0.73,0.07,2.94,2.94,2.94
21.44,2.12,2.12,-0.83,-0.83,0.83,0.72,0.07,2.95,2.95,2.95
21.66,2.16,2.16,-0.80,-0.80,0.80,0.71,0.07,2.96,2.97,2.96
21.87,2.20,2.20,-0.76,-0.76,0.77,0.70,0.08,2.97,2.97,2.96
22.09,2.23,2.23,-0.74,-0.73,0.74,0.69,0.08,2.97,2.97,2.97
22.31,2.26,2.26,-0.71,-0.71,0.71,0.68,0.08,2.97,2.97,2.97
22.54,2.29,2.29,-0.68,-0.68,0.68,0.67,0.09,2.97,2.97,2.97
22.76,2.31,2.31,-0.66,-0.65,0.65,0.66,0.09,2.96,2.96,2.97
22.99,2.33,2.34,-0.63,-0.62,0.63,0.65,0.09,2.96,2.96,2.96
23.22,2.36,2.36,-0.59,-0.60,0.60,0.64,0.10,2.97,2.96,2.96
23.45,2.38,2.38,-0.57,-0.58,0.58,0.63,0.10,2.97,2.96,2.96
23.69,2.39,2.40,-0.56,-0.56,0.56,0.62,0.10,2.95,2.96,2.96
23.92,2.41,2.41,-0.54,-0.55,0.54,0.61,0.11,2.95,2.95,2.95
24.16,2.43,2.43,-0.53,-0.53,0.52,0.60,0.11,2.95,2.95,2.96
24.40,2.45,2.45,-0.51,-0.51,0.50,0.59,0.11,2.96,2.96,2.96
24.65,2.47,2.47,-0.48,-0.48,0.48,0.58,0.12,2.95,2.96,2.95
24.89,2.49,2.49,-0.46,-0.46,0.46,0.57,0.12,2.95,2.95,2.95
25.14,2.51,2.51,-0.44,-0.44,0.44,0.56,0.12,2.95,2.95,2.95
25.39,2.53,2.53,-0.42,-0.42,0.41,0.54,0.13,2.95,2.95,2.95
25.65,2.55,2.55,-0.40,-0.39,0.39,0.53,0.13,2.94,2.94,2.95
25.91,2.57,2.57,-0.37,-0.37,0.37,0.52,0.14,2.94,2.94,2.94
26.16,2.59,2.59,-0.34,-0.34,0.35,0.51,0.14,2.94,2.94,2.94
26.43,2.61,2.61,-0.32,-0.32,0.33,0.50,0.14,2.94,2.94,2.94
26.69,2.63,2.63,-0.30,-0.30,0.31,0.49,0.14,2.94,2.94,2.93
26.96,2.64,2.64,-0.29,-0.29,0.28,0.47,0.15,2.93,2.93,2.93
27.23,2.66,2.66,-0.27,-0.27,0.26,0.46,0.15,2.92,2.92,2.93
27.50,2.68,2.69,-0.25,-0.24,0.24,0.45,0.15,2.92,2.92,2.93
27.77,2.71,2.71,-0.21,-0.21,0.21,0.44,0.15,2.92,2.92,2.92
28.05,2.73,2.73,-0.18,-0.18,0.18,0.42,0.16,2.92,2.92,2.92
28.33,2.75,2.76,-0.15,-0.15,0.16,0.41,0.16,2.91,2.91,2.91
28.62,2.78,2.78,-0.12,-0.12,0.13,0.40,0.16,2.91,2.91,2.90
28.90,2.80,2.80,-0.10,-0.10,0.10,0.39,0.16,2.90,2.90,2.90
29.19,2.82,2.82,-0.07,-0.07,0.07,0.37,0.16,2.90,2.90,2.89
29.48,2.84,2.84,-0.06,-0.05,0.05,0.36,0.16,2.89,2.89,2.90
29.78,2.86,2.86,-0.02,-0.03,0.02,0.35,0.16,2.89,2.89,2.89
30.08,2.88,2.88,-0.00,-0.00,0.00,0.33,0.16,2.88,2.88,2.89
30.38,2.89,2.90,0.02,0.02,-0.02,0.32,0.15,2.87,2.88,2.87
30.68,2.91,2.91,0.04,0.04,-0.04,0.31,0.15,2.88,2.87,2.87
30.99,2.92,2.92,0.06,0.06,-0.05,0.29,0.15,2.87,2.87,2.86
31.30,2.92,2.93,0.07,0.07,-0.07,0.28,0.15,2.86,2.86,2.86
31.61,2.93,2.93,0.08,0.08,-0.08,0.27,0.14,2.85,2.85,2.85
31.93,2.93,2.93,0.09,0.09,-0.09,0.25,0.14,2.84,2.84,2.84
32.24,2.93,2.93,0.10,0.10,-0.10,0.24,0.13,2.83,2.83,2.83
32.57,2.93,2.94,0.11,0.11,-0.11,0.22,0.13,2.82,2.82,2.83
32.89,2.94,2.94,0.12,0.12,-0.13,0.21,0.12,2.82,2.82,2.83
33.22,2.95,2.95,0.14,0.14,-0.14,0.20,0.11,2.81,2.81,2.81
33.55,2.96,2.96,0.15,0.16,-0.15,0.18,0.10,2.81,2.81,2.81
33.89,2.97,2.97,0.18,0.17,-0.16,0.17,0.10,2.81,2.81,2.80
34.23,2.97,2.97,0.18,0.18,-0.18,0.15,0.09,2.79,2.80,2.79
34.57,2.97,2.97,0.19,0.19,-0.19,0.14,0.08,2.78,2.78,2.78
34.92,2.97,2.97,0.21,0.20,-0.21,0.12,0.07,2.77,2.77,2.77
35.27,2.97,2.98,0.21,0.22,-0.22,0.11,0.06,2.75,2.76,2.76
35.62,2.98,2.98,0.23,0.23,-0.23,0.09,0.05,2.75,2.75,2.75
35.97,2.98,2.99,0.25,0.25,-0.25,0.08,0.04,2.74,2.74,2.74
36.33,2.99,2.99,0.26,0.26,-0.26,0.06,0.03,2.73,2.73,2.73
36.70,3.00,3.00,0.28,0.28,-0.28,0.05,0.02,2.73,2.72,2.72
37.06,3.00,3.00,0.30,0.29,-0.29,0.04,0.00,2.71,2.71,2.71
37.43,3.00,3.01,0.30,0.31,-0.31,0.02,-0.01,2.70,2.70,2.70
37.81,3.00,3.01,0.32,0.32,-0.32,0.00,-0.02,2.68,2.69,2.69
38.19,3.01,3.01,0.34,0.33,-0.33,-0.01,-0.03,2.68,2.67,2.67
38.57,3.00,3.01,0.34,0.34,-0.34,-0.03,-0.04,2.66,2.66,2.67
38.95,3.00,3.01,0.35,0.35,-0.35,-0.04,-0.06,2.65,2.65,2.65
39.34,3.00,3.00,0.37,0.36,-0.36,-0.06,-0.07,2.64,2.64,2.64
39.74,3.00,3.00,0.38,0.38,-0.37,-0.07,-0.08,2.63,2.63,2.62
40.14,2.99,3.00,0.38,0.38,-0.38,-0.09,-0.10,2.61,2.62,2.62
40.54,2.99,2.99,0.39,0.39,-0.39,-0.10,-0.11,2.61,2.60,2.60
40.94,2.98,2.99,0.39,0.39,-0.39,-0.12,-0.12,2.59,2.59,2.60
41.35,2.98,2.98,0.40,0.40,-0.40,-0.13,-0.14,2.58,2.58,2.58
41.76,2.98,2.98,0.41,0.41,-0.41,-0.15,-0.15,2.58,2.57,2.57
42.18,2.98,2.98,0.42,0.42,-0.42,-0.16,-0.17,2.57,2.57,2.57
42.60,2.97,2.98,0.42,0.42,-0.43,-0.18,-0.18,2.55,2.55,2.55
43.03,2.97,2.97,0.43,0.43,-0.44,-0.20,-0.19,2.54,2.53,2.54
43.46,2.96,2.97,0.44,0.44,-0.45,-0.21,-0.21,2.51,2.52,2.53
43.90,2.96,2.96,0.46,0.46,-0.46,-0.23,-0.22,2.50,2.50,2.50
44.33,2.96,2.96,0.48,0.48,-0.48,-0.24,-0.24,2.49,2.48,2.48
44.78,2.95,2.96,0.49,0.50,-0.49,-0.26,-0.25,2.46,2.47,2.46
45.23,2.95,2.95,0.51,0.51,-0.50,-0.27,-0.27,2.45,2.45,2.44
45.68,2.94,2.94,0.52,0.52,-0.51,-0.29,-0.28,2.43,2.43,2.43
46.13,2.93,2.93,0.53,0.52,-0.52,-0.30,-0.30,2.41,2.41,2.41
46.60,2.92,2.93,0.53,0.53,-0.53,-0.32,-0.31,2.39,2.40,2.40
47.06,2.92,2.92,0.55,0.55,-0.54,-0.33,-0.33,2.38,2.38,2.38
47.53,2.92,2.91,0.56,0.55,-0.55,-0.35,-0.34,2.37,2.36,2.36
48.01,2.90,2.90,0.56,0.56,-0.57,-0.36,-0.36,2.34,2.33,2.35
48.49,2.87,2.88,0.56,0.56,-0.58,-0.38,-0.38,2.29,2.30,2.32
48.97,2.86,2.87,0.58,0.58,-0.60,-0.40,-0.39,2.27,2.27,2.29
49.46,2.86,2.87,0.61,0.61,-0.61,-0.41,-0.41,2.25,2.26,2.25
49.96,2.87,2.87,0.65,0.64,-0.62,-0.43,-0.42,2.25,2.25,2.22
50.46,2.86,2.86,0.65,0.65,-0.63,-0.44,-0.44,2.24,2.23,2.21
50.96,2.83,2.83,0.65,0.65,-0.63,-0.46,-0.46,2.20,2.20,2.19
51.47,2.79,2.80,0.64,0.64,-0.63,-0.47,-0.47,2.16,2.16,2.15
51.99,2.76,2.76,0.63,0.63,-0.63,-0.48,-0.49,2.13,2.13,2.13
52.51,2.73,2.73,0.62,0.62,-0.63,-0.50,-0.51,2.10,2.10,2.12
53.03,2.70,2.71,0.61,0.61,-0.63,-0.51,-0.52,2.07,2.08,2.09
53.56,2.68,2.69,0.62,0.62,-0.63,-0.53,-0.54,2.05,2.06,2.07
54.10,2.67,2.67,0.63,0.63,-0.63,-0.54,-0.56,2.04,2.04,2.04
54.64,2.66,2.66,0.65,0.64,-0.64,-0.56,-0.57,2.02,2.02,2.02
55.18,2.64,2.64,0.65,0.65,-0.65,-0.57,-0.59,1.99,1.99,1.99
55.74,2.62,2.63,0.66,0.66,-0.66,-0.58,-0.61,1.96,1.97,1.96
56.29,2.60,2.61,0.66,0.67,-0.67,-0.60,-0.62,1.94,1.94,1.95
56.86,2.59,2.59,0.68,0.67,-0.67,-0.61,-0.64,1.93,1.92,1.92
57.42,2.56,2.56,0.67,0.67,-0.66,-0.63,-0.66,1.90,1.90,1.89
58.00,2.52,2.53,0.65,0.66,-0.65,-0.64,-0.67,1.87,1.88,1.87
58.58,2.50,2.50,0.65,0.65,-0.64,-0.65,-0.69,1.86,1.86,1.85
59.16,2.46,2.46,0.63,0.63,-0.63,-0.66,-0.70,1.84,1.83,1.83
59.76,2.41,2.41,0.61,0.60,-0.61,-0.68,-0.72,1.81,1.80,1.81
60.35,2.35,2.35,0.58,0.57,-0.59,-0.69,-0.73,1.77,1.77,1.78
60.96,2.29,2.31,0.54,0.56,-0.56,-0.70,-0.75,1.73,1.74,1.75
61.57,2.26,2.26,0.55,0.55,-0.54,-0.71,-0.76,1.72,1.72,1.71
62.18,2.22,2.21,0.55,0.53,-0.52,-0.73,-0.77,1.70,1.69,1.68
62.80,2.15,2.15,0.50,0.51,-0.50,-0.74,-0.79,1.65,1.65,1.65
63.43,2.09,2.10,0.48,0.48,-0.49,-0.75,-0.80,1.60,1.61,1.62
64.07,2.05,2.07,0.46,0.47,-0.48,-0.76,-0.81,1.57,1.58,1.59
64.71,2.05,2.04,0.49,0.48,-0.48,-0.77,-0.83,1.57,1.56,1.56
65.35,2.03,2.02,0.50,0.48,-0.48,-0.78,-0.84,1.55,1.54,1.54
66.01,1.99,2.00,0.48,0.49,-0.49,-0.79,-0.85,1.50,1.51,1.51
66.67,1.97,1.98,0.49,0.50,-0.51,-0.81,-0.86,1.47,1.47,1.48
67.33,1.97,1.97,0.52,0.52,-0.53,-0.82,-0.88,1.44,1.44,1.45
68.01,1.97,1.97,0.55,0.55,-0.56,-0.83,-0.89,1.42,1.41,1.42
68.69,1.97,1.98,0.58,0.59,-0.59,-0.84,-0.90,1.39,1.39,1.39
69.37,1.98,1.98,0.63,0.63,-0.62,-0.85,-0.91,1.37,1.37,1.36
70.07,1.99,1.99,0.67,0.66,-0.65,-0.86,-0.93,1.34,1.34,1.32
70.77,1.99,1.99,0.69,0.70,-0.69,-0.87,-0.94,1.30,1.30,1.30
71.48,1.99,1.99,0.73,0.73,-0.73,-0.88,-0.95,1.26,1.26,1.27
72.19,1.99,1.99,0.76,0.76,-0.77,-0.89,-0.96,1.22,1.22,1.23
72.91,1.99,1.99,0.80,0.80,-0.81,-0.91,-0.98,1.18,1.19,1.19
73.64,2.00,2.00,0.85,0.84,-0.85,-0.92,-0.99,1.16,1.16,1.16
74.38,2.01,2.02,0.88,0.89,-0.88,-0.93,-1.01,1.13,1.13,1.13
75.12,2.03,2.02,0.94,0.93,-0.92,-0.94,-1.02,1.11,1.10,1.09
75.87,2.02,2.02,0.96,0.96,-0.95,-0.96,-1.04,1.07,1.07,1.06
76.63,2.01,2.02,0.98,0.99,-0.99,-0.97,-1.05,1.03,1.03,1.03
77.40,2.01,2.01,1.01,1.01,-1.02,-0.99,-1.07,1.00,0.99,1.00
78.17,2.00,2.01,1.04,1.04,-1.04,-1.00,-1.09,0.96,0.96,0.96
78.95,2.00,2.00,1.07,1.07,-1.06,-1.02,-1.10,0.94,0.94,0.94
79.74,1.99,1.99,1.09,1.09,-1.08,-1.04,-1.12,0.91,0.91,0.90
80.54,1.98,1.98,1.11,1.11,-1.11,-1.06,-1.14,0.88,0.88,0.87
81.35,1.96,1.96,1.13,1.13,-1.13,-1.08,-1.16,0.84,0.83,0.83
82.16,1.94,1.94,1.14,1.14,-1.15,-1.10,-1.19,0.79,0.79,0.80
82.98,1.92,1.93,1.15,1.16,-1.17,-1.12,-1.21,0.75,0.75,0.77
83.81,1.91,1.92,1.19,1.19,-1.20,-1.14,-1.23,0.72,0.72,0.73
84.65,1.92,1.91,1.24,1.22,-1.22,-1.17,-1.26,0.70,0.69,0.69
85.50,1.91,1.91,1.25,1.26,-1.24,-1.19,-1.28,0.67,0.66,0.66
86.35,1.89,1.90,1.27,1.28,-1.27,-1.22,-1.31,0.62,0.63,0.62
87.22,1.88,1.88,1.30,1.30,-1.30,-1.25,-1.34,0.59,0.58,0.58
88.09,1.86,1.86,1.32,1.32,-1.32,-1.28,-1.36,0.54,0.54,0.54
88.97,1.84,1.85,1.33,1.34,-1.35,-1.31,-1.39,0.49,0.50,0.51
89.86,1.83,1.83,1.37,1.36,-1.37,-1.34,-1.43,0.46,0.46,0.47
90.76,1.81,1.82,1.40,1.40,-1.39,-1.37,-1.46,0.42,0.42,0.41
91.66,1.80,1.80,1.42,1.43,-1.42,-1.40,-1.49,0.38,0.39,0.38
92.58,1.79,1.78,1.46,1.45,-1.44,-1.43,-1.52,0.35,0.34,0.33
93.51,1.76,1.76,1.47,1.47,-1.47,-1.46,-1.56,0.29,0.29,0.30
94.44,1.73,1.74,1.48,1.49,-1.50,-1.50,-1.59,0.23,0.24,0.25
95.39,1.72,1.72,1.52,1.52,-1.52,-1.53,-1.63,0.20,0.20,0.21
96.34,1.71,1.71,1.56,1.55,-1.55,-1.57,-1.67,0.16,0.15,0.15
97.30,1.68,1.69,1.58,1.58,-1.58,-1.60,-1.71,0.11,0.11,0.11
98.28,1.67,1.67,1.61,1.61,-1.60,-1.63,-1.75,0.07,0.07,0.06
99.26,1.65,1.65,1.64,1.63,-1.63,-1.67,-1.79,0.02,0.02,0.02
100.25,1.63,1.63,1.66,1.66,-1.66,-1.70,-1.83,-0.03,-0.03,-0.03
101.25,1.60,1.61,1.68,1.69,-1.69,-1.74,-1.87,-0.09,-0.08,-0.08
102.27,1.59,1.59,1.71,1.72,-1.72,-1.77,-1.91,-0.13,-0.13,-0.12
103.29,1.58,1.58,1.76,1.75,-1.75,-1.81,-1.95,-0.17,-0.17,-0.18
104.32,1.57,1.57,1.79,1.78,-1.78,-1.84,-1.99,-0.21,-0.21,-0.21
105.37,1.54,1.55,1.80,1.81,-1.80,-1.87,-2.03,-0.26,-0.26,-0.26
106.42,1.52,1.53,1.83,1.83,-1.83,-1.91,-2.07,-0.31,-0.30,-0.31
107.48,1.50,1.50,1.86,1.86,-1.85,-1.94,-2.12,-0.35,-0.35,-0.35
108.56,1.48,1.48,1.89,1.88,-1.88,-1.98,-2.16,-0.40,-0.40,-0.41
109.64,1.45,1.45,1.91,1.90,-1.90,-2.01,-2.20,-0.45,-0.46,-0.46
110.74,1.41,1.42,1.91,1.92,-1.93,-2.04,-2.23,-0.52,-0.51,-0.50
111.85,1.39,1.40,1.94,1.95,-1.96,-2.08,-2.27,-0.57,-0.56,-0.55
112.97,1.38,1.38,2.00,1.98,-1.99,-2.11,-2.31,-0.61,-0.62,-0.61
114.10,1.36,1.37,2.02,2.03,-2.03,-2.14,-2.34,-0.67,-0.66,-0.66
115.24,1.35,1.35,2.07,2.07,-2.07,-2.17,-2.38,-0.71,-0.71,-0.71
116.39,1.34,1.34,2.11,2.11,-2.10,-2.20,-2.41,-0.76,-0.77,-0.77
117.55,1.32,1.33,2.14,2.15,-2.14,-2.24,-2.44,-0.82,-0.82,-0.82
118.73,1.31,1.31,2.19,2.19,-2.18,-2.27,-2.46,-0.87,-0.86,-0.88
119.92,1.30,1.30,2.22,2.22,-2.21,-2.30,-2.49,-0.91,-0.91,-0.92
121.12,1.28,1.28,2.25,2.25,-2.25,-2.33,-2.51,-0.96,-0.97,-0.97
122.33,1.25,1.26,2.28,2.28,-2.28,-2.36,-2.53,-1.02,-1.02,-1.02
123.55,1.23,1.24,2.30,2.31,-2.31,-2.39,-2.55,-1.07,-1.07,-1.07
124.79,1.22,1.22,2.34,2.33,-2.34,-2.42,-2.56,-1.12,-1.12,-1.12
126.03,1.20,1.20,2.37,2.37,-2.37,-2.45,-2.58,-1.17,-1.17,-1.17
127.29,1.18,1.19,2.40,2.41,-2.41,-2.48,-2.58,-1.23,-1.23,-1.22
128.57,1.17,1.18,2.45,2.45,-2.45,-2.51,-2.59,-1.28,-1.28,-1.28
129.85,1.17,1.17,2.50,2.50,-2.50,-2.54,-2.59,-1.33,-1.33,-1.33
131.15,1.17,1.17,2.55,2.54,-2.55,-2.57,-2.60,-1.37,-1.37,-1.37
132.46,1.17,1.18,2.59,2.60,-2.59,-2.60,-2.60,-1.42,-1.42,-1.42
133.79,1.18,1.18,2.64,2.65,-2.64,-2.63,-2.60,-1.46,-1.46,-1.46
135.12,1.19,1.19,2.71,2.69,-2.69,-2.66,-2.59,-1.50,-1.50,-1.51
136.48,1.19,1.19,2.74,2.74,-2.73,-2.69,-2.58,-1.54,-1.55,-1.55
137.84,1.17,1.18,2.77,2.78,-2.78,-2.72,-2.58,-1.60,-1.60,-1.59
139.22,1.17,1.17,2.82,2.81,-2.82,-2.75,-2.57,-1.65,-1.65,-1.65
140.61,1.17,1.17,2.86,2.85,-2.86,-2.78,-2.56,-1.68,-1.69,-1.69
142.02,1.17,1.17,2.88,2.89,-2.89,-2.81,-2.55,-1.72,-1.72,-1.71
143.44,1.17,1.17,2.92,2.93,-2.92,-2.83,-2.54,-1.75,-1.75,-1.75
144.87,1.17,1.17,2.97,2.96,-2.96,-2.86,-2.52,-1.78,-1.79,-1.79
146.32,1.16,1.16,2.99,2.99,-2.98,-2.89,-2.51,-1.82,-1.82,-1.83
147.78,1.14,1.15,3.00,3.01,-3.01,-2.92,-2.50,-1.87,-1.86,-1.86
149.26,1.13,1.13,3.03,3.03,-3.04,-2.95,-2.49,-1.90,-1.91,-1.90
150.75,1.11,1.11,3.06,3.05,-3.06,-2.97,-2.48,-1.95,-1.95,-1.95
152.26,1.09,1.10,3.08,3.08,-3.08,-3.00,-2.47,-1.99,-1.98,-1.98
153.78,1.08,1.08,3.10,3.10,-3.10,-3.02,-2.46,-2.02,-2.02,-2.02
155.32,1.06,1.06,3.13,3.12,-3.11,-3.05,-2.45,-2.05,-2.05,-2.06
156.88,1.03,1.03,3.13,3.13,-3.13,-3.08,-2.44,-2.10,-2.09,-2.10
158.44,1.00,1.00,3.14,3.14,-3.14,-3.10,-2.43,-2.14,-2.14,-2.14
160.03,0.96,0.97,3.14,3.15,-3.15,-3.12,-2.43,-2.19,-2.19,-2.18
161.63,0.93,0.93,3.16,3.16,-3.16,-3.14,-2.42,-2.23,-2.23,-2.22
163.24,0.90,0.90,3.17,3.16,-3.16,-3.16,-2.42,-2.26,-2.26,-2.26
164.88,0.87,0.87,3.17,3.17,-3.17,-3.18,-2.42,-2.29,-2.29,-2.29
166.53,0.84,0.84,3.18,3.17,-3.17,-3.20,-2.42,-2.33,-2.33,-2.33
168.19,0.80,0.80,3.17,3.17,-3.17,-3.22,-2.43,-2.37,-2.37,-2.37
169.87,0.76,0.76,3.17,3.17,-3.17,-3.24,-2.43,-2.41,-2.41,-2.41
171.57,0.72,0.72,3.17,3.17,-3.17,-3.25,-2.44,-2.45,-2.45,-2.45
173.29,0.68,0.69,3.16,3.17,-3.18,-3.26,-2.44,-2.49,-2.49,-2.48
175.02,0.66,0.66,3.18,3.18,-3.18,-3.27,-2.45,-2.51,-2.52,-2.52
176.77,0.62,0.62,3.18,3.18,-3.18,-3.28,-2.47,-2.56,-2.56,-2.56
178.54,0.58,0.59,3.19,3.19,-3.19,-3.28,-2.48,-2.60,-2.60,-2.61
180.32,0.55,0.55,3.19,3.19,-3.19,-3.29,-2.49,-2.64,-2.64,-2.64
182.13,0.52,0.52,3.19,3.20,-3.20,-3.29,-2.51,-2.68,-2.68,-2.67
183.95,0.49,0.49,3.21,3.20,-3.21,-3.29,-2.53,-2.72,-2.72,-2.71
185.79,0.46,0.47,3.21,3.21,-3.22,-3.29,-2.55,-2.75,-2.75,-2.75
187.65,0.44,0.44,3.23,3.23,-3.22,-3.29,-2.58,-2.78,-2.78,-2.79
189.52,0.42,0.42,3.24,3.23,-3.23,-3.28,-2.60,-2.81,-2.81,-2.82
191.42,0.39,0.39,3.24,3.24,-3.24,-3.28,-2.63,-2.84,-2.84,-2.85
193.33,0.36,0.37,3.24,3.24,-3.24,-3.27,-2.66,-2.88,-2.88,-2.87
195.27,0.34,0.34,3.25,3.25,-3.24,-3.26,-2.69,-2.90,-2.90,-2.90
197.22,0.31,0.32,3.24,3.25,-3.24,-3.25,-2.72,-2.93,-2.93,-2.93
199.19,0.29,0.28,3.26,3.25,-3.24,-3.24,-2.75,-2.95,-2.96,-2.97
201.18,0.25,0.25,3.24,3.24,-3.24,-3.22,-2.78,-2.99,-2.99,-2.98
203.19,0.21,0.22,3.21,3.23,-3.23,-3.21,-2.82,-3.02,-3.01,-3.00
205.23,0.20,0.21,3.23,3.22,-3.23,-3.19,-2.85,-3.03,-3.02,-3.03
207.28,0.19,0.19,3.22,3.23,-3.22,-3.18,-2.89,-3.03,-3.04,-3.03
209.35,0.18,0.17,3.24,3.22,-3.22,-3.16,-2.92,-3.04,-3.05,-3.06
211.44,0.12,0.14,3.20,3.21,-3.21,-3.14,-2.96,-3.09,-3.07,-3.08
213.56,0.11,0.12,3.20,3.20,-3.21,-3.13,-2.99,-3.10,-3.09,-3.08
215.69,0.11,0.10,3.20,3.19,-3.20,-3.11,-3.03,-3.09,-3.10,-3.09
217.85,0.10,0.10,3.20,3.20,-3.20,-3.09,-3.06,-3.09,-3.10,-3.10
220.03,0.07,0.08,3.18,3.19,-3.19,-3.07,-3.10,-3.11,-3.10,-3.11
222.23,0.06,0.06,3.19,3.18,-3.17,-3.05,-3.13,-3.11,-3.11,-3.12
224.45,0.05,0.05,3.17,3.17,-3.16,-3.04,-3.16,-3.11,-3.11,-3.12
226.70,0.03,0.03,3.15,3.15,-3.15,-3.02,-3.19,-3.12,-3.12,-3.12
228.96,0.01,0.01,3.13,3.12,-3.13,-3.00,-3.21,-3.12,-3.12,-3.12
231.25,-0.01,-0.00,3.10,3.11,-3.12,-2.98,-3.24,-3.12,-3.12,-3.11
233.57,-0.02,-0.01,3.09,3.10,-3.10,-2.96,-3.26,-3.12,-3.11,-3.11
235.90,-0.02,-0.02,3.09,3.08,-3.08,-2.94,-3.28,-3.10,-3.10,-3.11
238.26,-0.03,-0.03,3.08,3.07,-3.07,-2.92,-3.29,-3.09,-3.10,-3.11
240.64,-0.05,-0.04,3.05,3.05,-3.05,-2.91,-3.30,-3.10,-3.09,-3.10
243.05,-0.06,-0.06,3.03,3.03,-3.03,-2.89,-3.31,-3.09,-3.09,-3.08
245.48,-0.07,-0.07,3.01,3.01,-3.01,-2.87,-3.31,-3.08,-3.08,-3.07
247.93,-0.08,-0.08,2.98,2.99,-2.99,-2.85,-3.31,-3.06,-3.06,-3.06
250.41,-0.09,-0.09,2.97,2.97,-2.96,-2.83,-3.31,-3.05,-3.05,-3.06
252.92,-0.10,-0.10,2.94,2.94,-2.94,-2.82,-3.30,-3.03,-3.03,-3.04
255.45,-0.11,-0.11,2.91,2.91,-2.91,-2.80,-3.29,-3.01,-3.02,-3.01
258.00,-0.13,-0.12,2.87,2.88,-2.88,-2.78,-3.27,-3.01,-3.00,-3.00
260.58,-0.14,-0.14,2.85,2.85,-2.85,-2.76,-3.25,-2.99,-2.99,-2.99
263.19,-0.15,-0.15,2.82,2.82,-2.82,-2.75,-3.22,-2.97,-2.97,-2.96
265.82,-0.16,-0.16,2.79,2.79,-2.79,-2.73,-3.20,-2.95,-2.95,-2.95
268.48,-0.17,-0.17,2.76,2.76,-2.76,-2.71,-3.17,-2.92,-2.93,-2.93
271.16,-0.19,-0.18,2.72,2.73,-2.72,-2.70,-3.13,-2.91,-2.90,-2.90
273.87,-0.19,-0.19,2.70,2.69,-2.69,-2.68,-3.10,-2.88,-2.88,-2.89
276.61,-0.20,-0.21,2.67,2.66,-2.66,-2.66,-3.06,-2.86,-2.87,-2.86
279.38,-0.23,-0.22,2.62,2.63,-2.63,-2.65,-3.01,-2.85,-2.85,-2.85
282.17,-0.25,-0.24,2.59,2.59,-2.59,-2.63,-2.97,-2.84,-2.84,-2.83
284.99,-0.26,-0.26,2.55,2.55,-2.56,-2.61,-2.92,-2.81,-2.82,-2.81
287.84,-0.27,-0.27,2.53,2.52,-2.52,-2.59,-2.88,-2.79,-2.79,-2.79
290.72,-0.28,-0.28,2.49,2.49,-2.49,-2.58,-2.83,-2.76,-2.77,-2.77
293.63,-0.30,-0.30,2.46,2.45,-2.45,-2.56,-2.78,-2.75,-2.75,-2.75
296.57,-0.32,-0.31,2.41,2.42,-2.41,-2.54,-2.73,-2.73,-2.73,-2.73
299.53,-0.33,-0.33,2.38,2.38,-2.38,-2.53,-2.68,-2.70,-2.71,-2.71
302.53,-0.36,-0.35,2.34,2.34,-2.34,-2.51,-2.63,-2.70,-2.69,-2.69
305.55,-0.37,-0.37,2.29,2.30,-2.30,-2.49,-2.58,-2.67,-2.67,-2.66
308.61,-0.38,-0.38,2.26,2.26,-2.26,-2.48,-2.53,-2.64,-2.64,-2.64
311.69,-0.39,-0.38,2.23,2.23,-2.23,-2.46,-2.48,-2.62,-2.61,-2.62
314.81,-0.39,-0.39,2.19,2.19,-2.19,-2.44,-2.44,-2.58,-2.59,-2.58
317.96,-0.41,-0.40,2.16,2.16,-2.16,-2.42,-2.39,-2.56,-2.56,-2.56
321.14,-0.42,-0.42,2.13,2.13,-2.12,-2.41,-2.34,-2.54,-2.54,-2.55
324.35,-0.43,-0.43,2.10,2.09,-2.09,-2.39,-2.30,-2.51,-2.52,-2.53
327.59,-0.45,-0.45,2.05,2.06,-2.06,-2.37,-2.25,-2.50,-2.51,-2.50
330.87,-0.47,-0.47,2.02,2.02,-2.03,-2.35,-2.21,-2.49,-2.49,-2.48
334.18,-0.49,-0.48,1.98,1.99,-2.00,-2.34,-2.17,-2.49,-2.48,-2.47
337.52,-0.48,-0.48,1.97,1.97,-1.97,-2.32,-2.13,-2.45,-2.45,-2.45
340.90,-0.48,-0.48,1.95,1.95,-1.95,-2.30,-2.09,-2.42,-2.42,-2.42
344.30,-0.47,-0.47,1.94,1.93,-1.92,-2.28,-2.05,-2.39,-2.40,-2.40
347.75,-0.48,-0.48,1.91,1.91,-1.91,-2.26,-2.01,-2.38,-2.38,-2.39
351.23,-0.49,-0.48,1.88,1.89,-1.89,-2.24,-1.98,-2.38,-2.37,-2.37
354.74,-0.49,-0.49,1.86,1.86,-1.87,-2.23,-1.94,-2.36,-2.36,-2.35
358.28,-0.49,-0.48,1.85,1.85,-1.85,-2.21,-1.91,-2.34,-2.34,-2.33
361.87,-0.48,-0.48,1.84,1.84,-1.83,-2.19,-1.88,-2.31,-2.31,-2.32
365.49,-0.47,-0.48,1.83,1.82,-1.81,-2.17,-1.85,-2.28,-2.29,-2.30
369.14,-0.49,-0.48,1.80,1.81,-1.79,-2.15,-1.83,-2.27,-2.27,-2.29
372.83,-0.50,-0.50,1.77,1.78,-1.77,-2.13,-1.80,-2.26,-2.26,-2.27
376.56,-0.51,-0.51,1.76,1.74,-1.75,-2.11,-1.78,-2.25,-2.26,-2.26
380.33,-0.53,-0.53,1.71,1.71,-1.73,-2.09,-1.75,-2.26,-2.26,-2.23
384.13,-0.54,-0.53,1.69,1.70,-1.72,-2.07,-1.73,-2.25,-2.25,-2.23
387.97,-0.53,-0.53,1.69,1.69,-1.71,-2.05,-1.71,-2.23,-2.23,-2.22
391.85,-0.51,-0.51,1.70,1.70,-1.70,-2.03,-1.69,-2.21,-2.21,-2.21
395.77,-0.49,-0.49,1.70,1.71,-1.70,-2.01,-1.67,-2.18,-2.18,-2.19
399.73,-0.47,-0.47,1.71,1.71,-1.70,-1.99,-1.66,-2.16,-2.17,-2.18
403.72,-0.46,-0.46,1.72,1.71,-1.70,-1.97,-1.64,-2.16,-2.16,-2.17
407.76,-0.46,-0.46,1.71,1.71,-1.70,-1.95,-1.63,-2.16,-2.16,-2.16
411.84,-0.46,-0.45,1.69,1.70,-1.71,-1.93,-1.62,-2.16,-2.16,-2.15
415.96,-0.44,-0.44,1.70,1.70,-1.71,-1.91,-1.60,-2.14,-2.15,-2.14
420.12,-0.43,-0.43,1.70,1.70,-1.71,-1.89,-1.59,-2.13,-2.13,-2.13
424.32,-0.41,-0.41,1.71,1.71,-1.70,-1.87,-1.58,-2.11,-2.12,-2.12
428.56,-0.41,-0.40,1.70,1.71,-1.70,-1.85,-1.57,-2.11,-2.11,-2.11
432.85,-0.40,-0.40,1.70,1.70,-1.70,-1.82,-1.56,-2.10,-2.10,-2.10
437.18,-0.40,-0.40,1.70,1.69,-1.69,-1.80,-1.55,-2.09,-2.09,-2.09
441.55,-0.39,-0.39,1.69,1.69,-1.69,-1.78,-1.55,-2.08,-2.08,-2.07
445.96,-0.39,-0.38,1.68,1.68,-1.68,-1.76,-1.54,-2.07,-2.07,-2.06
450.42,-0.38,-0.38,1.68,1.67,-1.67,-1.74,-1.53,-2.05,-2.05,-2.06
454.93,-0.38,-0.38,1.66,1.66,-1.66,-1.72,-1.52,-2.04,-2.04,-2.04
459.48,-0.38,-0.38,1.65,1.65,-1.65,-1.69,-1.52,-2.03,-2.03,-2.03
464.07,-0.38,-0.37,1.63,1.64,-1.64,-1.67,-1.51,-2.01,-2.01,-2.01
468.71,-0.37,-0.37,1.62,1.63,-1.62,-1.65,-1.50,-1.99,-1.99,-1.99
473.40,-0.36,-0.37,1.62,1.61,-1.61,-1.63,-1.49,-1.97,-1.98,-1.98
478.13,-0.37,-0.37,1.59,1.60,-1.60,-1.60,-1.49,-1.97,-1.97,-1.96
482.91,-0.38,-0.37,1.57,1.58,-1.59,-1.58,-1.48,-1.96,-1.95,-1.95
487.74,-0.37,-0.36,1.56,1.57,-1.57,-1.56,-1.47,-1.94,-1.94,-1.93
492.62,-0.35,-0.36,1.57,1.56,-1.56,-1.53,-1.46,-1.90,-1.92,-1.91
497.55,-0.36,-0.36,1.55,1.54,-1.54,-1.51,-1.45,-1.90,-1.90,-1.90
