frequency,raw
20.00,-13.81
20.20,-13.58
20.40,-13.35
20.61,-13.12
20.81,-12.89
21.02,-12.66
21.23,-12.43
21.44,-12.21
21.66,-12.00
21.87,-11.80
22.09,-11.61
22.31,-11.41
22.54,-11.21
22.76,-11.00
22.99,-10.79
23.22,-10.56
23.45,-10.34
23.69,-10.12
23.92,-9.91
24.16,-9.70
24.40,-9.51
24.65,-9.31
24.89,-9.12
25.14,-8.93
25.39,-8.74
25.65,-8.55
25.91,-8.36
26.16,-8.17
26.43,-7.98
26.69,-7.80
26.96,-7.63
27.23,-7.45
27.50,-7.26
27.77,-7.06
28.05,-6.86
28.33,-6.64
28.62,-6.41
28.90,-6.19
29.19,-5.97
29.48,-5.76
29.78,-5.55
30.08,-5.34
30.38,-5.13
30.68,-4.92
30.99,-4.71
31.30,-4.51
31.61,-4.31
31.93,-4.12
32.24,-3.95
32.57,-3.78
32.89,-3.62
33.22,-3.47
33.55,-3.32
33.89,-3.18
34.23,-3.03
34.57,-2.89
34.92,-2.73
35.27,-2.57
35.62,-2.41
35.97,-2.25
36.33,-2.09
36.70,-1.93
37.06,-1.77
37.43,-1.61
37.81,-1.45
38.19,-1.29
38.57,-1.12
38.95,-0.96
39.34,-0.79
39.74,-0.63
40.14,-0.48
40.54,-0.32
40.94,-0.18
41.35,-0.03
41.76,0.10
42.18,0.22
42.60,0.33
43.03,0.42
43.46,0.50
43.90,0.57
44.33,0.63
44.78,0.67
45.23,0.71
45.68,0.75
46.13,0.79
46.60,0.84
47.06,0.87
47.53,0.89
48.01,0.88
48.49,0.87
48.97,0.86
49.46,0.84
49.96,0.77
50.46,0.65
50.96,0.50
51.47,0.31
51.99,0.10
52.51,-0.10
53.03,-0.30
53.56,-0.47
54.10,-0.61
54.64,-0.69
55.18,-0.71
55.74,-0.61
56.29,-0.41
56.86,-0.15
57.42,0.18
58.00,0.54
58.58,0.89
59.16,1.22
59.76,1.51
60.35,1.74
60.96,1.92
61.57,2.04
62.18,2.12
62.80,2.18
63.43,2.26
64.07,2.35
64.71,2.49
65.35,2.65
66.01,2.84
66.67,3.05
67.33,3.26
68.01,3.48
68.69,3.68
69.37,3.88
70.07,4.06
70.77,4.23
71.48,4.39
72.19,4.54
72.91,4.67
73.64,4.80
74.38,4.92
75.12,5.02
75.87,5.11
76.63,5.18
77.40,5.25
78.17,5.31
78.95,5.37
79.74,5.41
80.54,5.45
81.35,5.48
82.16,5.50
82.98,5.51
83.81,5.52
84.65,5.51
85.50,5.50
86.35,5.48
87.22,5.46
88.09,5.43
88.97,5.41
89.86,5.39
90.76,5.38
91.66,5.38
92.58,5.38
93.51,5.39
94.44,5.40
95.39,5.41
96.34,5.42
97.30,5.43
98.28,5.43
99.26,5.44
100.25,5.44
101.25,5.43
102.27,5.42
103.29,5.41
104.32,5.39
105.37,5.36
106.42,5.33
107.48,5.30
108.56,5.25
109.64,5.19
110.74,5.12
111.85,5.04
112.97,4.96
114.10,4.89
115.24,4.82
116.39,4.77
117.55,4.73
118.73,4.71
119.92,4.70
121.12,4.69
122.33,4.70
123.55,4.71
124.79,4.71
126.03,4.72
127.29,4.73
128.57,4.73
129.85,4.73
131.15,4.73
132.46,4.73
133.79,4.72
135.12,4.72
136.48,4.73
137.84,4.75
139.22,4.77
140.61,4.78
142.02,4.80
143.44,4.82
144.87,4.84
146.32,4.85
147.78,4.86
149.26,4.88
150.75,4.89
152.26,4.90
153.78,4.92
155.32,4.94
156.88,4.96
158.44,4.97
160.03,4.97
161.63,4.95
163.24,4.91
164.88,4.86
166.53,4.80
168.19,4.75
169.87,4.71
171.57,4.72
173.29,4.75
175.02,4.80
176.77,4.88
178.54,4.96
180.32,5.04
182.13,5.11
183.95,5.20
185.79,5.28
187.65,5.37
189.52,5.47
191.42,5.59
193.33,5.71
195.27,5.85
197.22,5.99
199.19,6.12
201.18,6.24
203.19,6.35
205.23,6.42
207.28,6.48
209.35,6.52
211.44,6.53
213.56,6.53
215.69,6.50
217.85,6.47
220.03,6.42
222.23,6.35
224.45,6.28
226.70,6.19
228.96,6.08
231.25,5.97
233.57,5.84
235.90,5.71
238.26,5.56
240.64,5.40
243.05,5.24
245.48,5.06
247.93,4.88
250.41,4.68
252.92,4.48
255.45,4.28
258.00,4.08
260.58,3.88
263.19,3.67
265.82,3.46
268.48,3.24
271.16,3.01
273.87,2.78
276.61,2.55
279.38,2.31
282.17,2.06
284.99,1.82
287.84,1.57
290.72,1.31
293.63,1.05
296.57,0.78
299.53,0.52
302.53,0.25
305.55,-0.02
308.61,-0.29
311.69,-0.56
314.81,-0.84
317.96,-1.12
321.14,-1.39
324.35,-1.67
327.59,-1.94
330.87,-2.21
334.18,-2.48
337.52,-2.74
340.90,-3.01
344.30,-3.26
347.75,-3.51
351.23,-3.76
354.74,-4.00
358.28,-4.22
361.87,-4.45
365.49,-4.66
369.14,-4.86
372.83,-5.05
376.56,-5.24
380.33,-5.41
384.13,-5.57
387.97,-5.72
391.85,-5.86
395.77,-5.99
399.73,-6.10
403.72,-6.20
407.76,-6.28
411.84,-6.36
415.96,-6.42
420.12,-6.47
424.32,-6.51
428.56,-6.53
432.85,-6.54
437.18,-6.53
441.55,-6.50
445.96,-6.45
450.42,-6.38
454.93,-6.30
459.48,-6.20
464.07,-6.09
468.71,-5.96
473.40,-5.81
478.13,-5.64
482.91,-5.45
487.74,-5.25
492.62,-5.02
497.55,-4.79
502.52,-4.54
507.55,-4.28
512.62,-4.01
517.75,-3.73
522.93,-3.47
528.16,-3.21
533.44,-2.98
538.77,-2.77
544.16,-2.61
549.60,-2.51
555.10,-2.48
560.65,-2.50
566.25,-2.63
571.92,-2.78
577.64,-2.98
583.41,-3.13
589.25,-3.25
595.14,-3.18
601.09,-3.04
607.10,-2.73
613.17,-2.36
619.30,-1.96
625.50,-1.57
631.75,-1.22
638.07,-0.92
644.45,-0.68
650.89,-0.49
657.40,-0.38
663.98,-0.34
670.62,-0.34
677.32,-0.42
684.10,-0.52
690.94,-0.62
697.85,-0.67
704.83,-0.63
711.87,-0.50
718.99,-0.28
726.18,0.02
733.44,0.34
740.78,0.66
748.19,0.96
755.67,1.22
763.23,1.47
770.86,1.68
778.57,1.87
786.35,2.03
794.22,2.16
802.16,2.28
810.18,2.35
818.28,2.39
826.46,2.41
834.73,2.39
843.08,2.34
851.51,2.28
860.02,2.20
868.62,2.12
877.31,2.04
886.08,1.96
894.94,1.87
903.89,1.77
912.93,1.64
922.06,1.49
931.28,1.33
940.59,1.15
950.00,0.96
959.50,0.77
969.09,0.58
978.78,0.39
988.57,0.20
998.46,0.03
1008.44,-0.14
1018.53,-0.30
1028.71,-0.45
1039.00,-0.59
1049.39,-0.72
1059.88,-0.85
1070.48,-0.97
1081.19,-1.08
1092.00,-1.18
1102.92,-1.28
1113.95,-1.37
1125.09,-1.45
1136.34,-1.52
1147.70,-1.57
1159.18,-1.61
1170.77,-1.65
1182.48,-1.66
1194.30,-1.68
1206.25,-1.69
1218.31,-1.71
1230.49,-1.75
1242.80,-1.79
1255.22,-1.84
1267.78,-1.88
1280.45,-1.92
1293.26,-1.94
1306.19,-1.97
1319.25,-1.99
1332.45,-1.98
1345.77,-1.96
1359.23,-1.92
1372.82,-1.85
1386.55,-1.77
1400.41,-1.69
1414.42,-1.59
1428.56,-1.50
1442.85,-1.40
1457.28,-1.29
1471.85,-1.18
1486.57,-1.05
1501.43,-0.92
1516.45,-0.77
1531.61,-0.62
1546.93,-0.45
1562.40,-0.28
1578.02,-0.10
1593.80,0.08
1609.74,0.27
1625.84,0.45
1642.10,0.64
1658.52,0.82
1675.10,1.00
1691.85,1.18
1708.77,1.35
1725.86,1.53
1743.12,1.70
1760.55,1.87
1778.15,2.05
1795.94,2.23
1813.90,2.43
1832.03,2.64
1850.36,2.85
1868.86,3.06
1887.55,3.28
1906.42,3.50
1925.49,3.72
1944.74,3.95
1964.19,4.19
1983.83,4.43
2003.67,4.68
2023.71,4.94
2043.94,5.21
2064.38,5.49
2085.03,5.77
2105.88,6.08
2126.94,6.39
2148.20,6.71
2169.69,7.04
2191.38,7.37
2213.30,7.69
2235.43,8.01
2257.78,8.33
2280.36,8.65
2303.17,8.96
2326.20,9.26
2349.46,9.55
2372.95,9.83
2396.68,10.11
2420.65,10.39
2444.86,10.68
2469.31,10.97
2494.00,11.25
2518.94,11.53
2544.13,11.80
2569.57,12.06
2595.27,12.30
2621.22,12.54
2647.43,12.77
2673.90,12.98
2700.64,13.19
2727.65,13.39
2754.93,13.58
2782.48,13.77
2810.30,13.97
2838.40,14.17
2866.79,14.39
2895.46,14.61
2924.41,14.83
2953.65,15.05
2983.19,15.27
3013.02,15.47
3043.15,15.65
3073.58,15.78
3104.32,15.87
3135.36,15.91
3166.72,15.93
3198.38,15.93
3230.37,15.94
3262.67,15.95
3295.30,15.97
3328.25,16.01
3361.53,16.06
3395.15,16.12
3429.10,16.16
3463.39,16.19
3498.03,16.20
3533.01,16.15
3568.34,16.08
3604.02,15.97
3640.06,15.83
3676.46,15.68
3713.22,15.52
3750.36,15.37
3787.86,15.23
3825.74,15.10
3864.00,14.97
3902.64,14.82
3941.66,14.67
3981.08,14.47
4020.89,14.24
4061.10,14.01
4101.71,13.84
4142.73,13.72
4184.15,13.67
4226.00,13.68
4268.26,13.67
4310.94,13.65
4354.05,13.55
4397.59,13.41
4441.56,13.24
4485.98,13.04
4530.84,12.83
4576.15,12.59
4621.91,12.32
4668.13,12.03
4714.81,11.73
4761.96,11.42
4809.58,11.09
4857.67,10.75
4906.25,10.41
4955.31,10.08
5004.87,9.78
5054.91,9.52
5105.46,9.30
5156.52,9.13
5208.08,9.02
5260.16,8.98
5312.77,8.96
5365.89,8.98
5419.55,9.05
5473.75,9.16
5528.49,9.29
5583.77,9.46
5639.61,9.65
5696.00,9.85
5752.96,10.02
5810.49,10.18
5868.60,10.27
5927.28,10.30
5986.56,10.26
6046.42,10.11
6106.89,9.87
6167.96,9.52
6229.64,9.08
6291.93,8.56
6354.85,7.97
6418.40,7.39
6482.58,6.82
6547.41,6.33
6612.88,5.90
6679.01,5.62
6745.80,5.45
6813.26,5.37
6881.39,5.38
6950.21,5.44
7019.71,5.53
7089.91,5.63
7160.81,5.73
7232.41,5.84
7304.74,5.95
7377.79,6.09
7451.56,6.27
7526.08,6.47
7601.34,6.69
7677.35,6.95
7754.13,7.21
7831.67,7.47
7909.98,7.73
7989.08,7.98
8068.98,8.21
8149.67,8.41
8231.16,8.59
8313.47,8.72
8396.61,8.82
8480.57,8.88
8565.38,8.89
8651.03,8.85
8737.54,8.74
8824.92,8.50
8913.17,8.09
9002.30,7.62
9092.32,6.89
9183.25,6.02
9275.08,5.05
9367.83,3.97
9461.51,2.90
9556.12,1.89
9651.68,1.01
9748.20,0.28
9845.68,-0.16
9944.14,-0.36
10043.58,-0.28
10144.02,-0.00
10245.46,0.45
10347.91,0.88
10451.39,1.23
10555.91,1.35
10661.46,1.29
10768.08,1.06
10875.76,0.61
10984.52,0.02
11094.36,-0.64
11205.31,-1.34
11317.36,-1.95
11430.53,-2.44
11544.84,-2.57
11660.29,-2.41
11776.89,-2.09
11894.66,-1.54
12013.60,-0.98
12133.74,-0.44
12255.08,0.08
12377.63,0.61
12501.41,1.22
12626.42,1.99
12752.68,2.89
12880.21,3.84
13009.01,4.80
13139.10,5.75
13270.49,6.40
13403.20,6.91
13537.23,6.98
13672.60,6.82
13809.33,6.43
13947.42,5.75
14086.90,4.98
14227.77,4.15
14370.04,3.38
14513.74,2.66
14658.88,2.04
14805.47,1.39
14953.52,0.68
15103.06,-0.25
15254.09,-1.28
15406.63,-2.60
15560.70,-3.91
15716.30,-5.21
15873.47,-5.78
16032.20,-5.90
16192.52,-4.98
16354.45,-3.79
16517.99,-2.46
16683.17,-1.30
16850.01,-0.46
17018.51,0.08
17188.69,-0.03
17360.58,-0.62
17534.18,-1.56
17709.53,-2.88
17886.62,-4.19
18065.49,-5.33
18246.14,-6.17
18428.60,-6.59
18612.89,-6.89
18799.02,-7.11
18987.01,-7.27
19176.88,-7.40
19368.65,-7.50
19562.33,-7.57
19757.96,-7.62
19955.54,-7.66
