frequency,raw
20.00,-13.88
20.20,-13.81
20.40,-13.74
20.61,-13.68
20.81,-13.61
21.02,-13.54
21.23,-13.47
21.44,-13.38
21.66,-13.26
21.87,-13.13
22.09,-12.98
22.31,-12.82
22.54,-12.67
22.76,-12.51
22.99,-12.36
23.22,-12.22
23.45,-12.09
23.69,-11.96
23.92,-11.83
24.16,-11.69
24.40,-11.55
24.65,-11.42
24.89,-11.31
25.14,-11.23
25.39,-11.18
25.65,-11.19
25.91,-11.21
26.16,-11.26
26.43,-11.27
26.69,-11.23
26.96,-11.15
27.23,-10.99
27.50,-10.79
27.77,-10.57
28.05,-10.34
28.33,-10.11
28.62,-9.89
28.90,-9.69
29.19,-9.52
29.48,-9.38
29.78,-9.30
30.08,-9.23
30.38,-9.21
30.68,-9.22
30.99,-9.24
31.30,-9.26
31.61,-9.26
31.93,-9.24
32.24,-9.17
32.57,-9.08
32.89,-8.97
33.22,-8.85
33.55,-8.73
33.89,-8.62
34.23,-8.50
34.57,-8.39
34.92,-8.27
35.27,-8.15
35.62,-8.04
35.97,-7.94
36.33,-7.85
36.70,-7.76
37.06,-7.67
37.43,-7.57
37.81,-7.48
38.19,-7.38
38.57,-7.30
38.95,-7.23
39.34,-7.16
39.74,-7.09
40.14,-6.98
40.54,-6.83
40.94,-6.63
41.35,-6.41
41.76,-6.19
42.18,-6.03
42.60,-5.90
43.03,-5.84
43.46,-5.79
43.90,-5.72
44.33,-5.63
44.78,-5.51
45.23,-5.37
45.68,-5.22
46.13,-5.09
46.60,-4.98
47.06,-4.89
47.53,-4.81
48.01,-4.74
48.49,-4.67
48.97,-4.60
49.46,-4.52
49.96,-4.45
50.46,-4.41
50.96,-4.37
51.47,-4.35
51.99,-4.32
52.51,-4.29
53.03,-4.26
53.56,-4.21
54.10,-4.14
54.64,-4.05
55.18,-3.94
55.74,-3.85
56.29,-3.79
56.86,-3.75
57.42,-3.72
58.00,-3.70
58.58,-3.65
59.16,-3.61
59.76,-3.56
60.35,-3.52
60.96,-3.48
61.57,-3.45
62.18,-3.43
62.80,-3.40
63.43,-3.37
64.07,-3.34
64.71,-3.30
65.35,-3.27
66.01,-3.23
66.67,-3.21
67.33,-3.20
68.01,-3.19
68.69,-3.18
69.37,-3.16
70.07,-3.14
70.77,-3.11
71.48,-3.08
72.19,-3.05
72.91,-3.02
73.64,-2.99
74.38,-2.96
75.12,-2.94
75.87,-2.93
76.63,-2.92
77.40,-2.90
78.17,-2.88
78.95,-2.87
79.74,-2.85
80.54,-2.85
81.35,-2.85
82.16,-2.85
82.98,-2.85
83.81,-2.85
84.65,-2.86
85.50,-2.87
86.35,-2.86
87.22,-2.85
88.09,-2.83
88.97,-2.82
89.86,-2.81
90.76,-2.82
91.66,-2.83
92.58,-2.84
93.51,-2.84
94.44,-2.84
95.39,-2.84
96.34,-2.84
97.30,-2.84
98.28,-2.85
99.26,-2.85
100.25,-2.86
101.25,-2.87
102.27,-2.89
103.29,-2.91
104.32,-2.93
105.37,-2.94
106.42,-2.95
107.48,-2.95
108.56,-2.95
109.64,-2.96
110.74,-2.96
111.85,-2.97
112.97,-2.98
114.10,-2.98
115.24,-2.99
116.39,-3.00
117.55,-3.01
118.73,-3.02
119.92,-3.04
121.12,-3.05
122.33,-3.05
123.55,-3.06
124.79,-3.06
126.03,-3.05
127.29,-3.04
128.57,-3.02
129.85,-2.99
131.15,-2.97
132.46,-2.97
133.79,-2.99
135.12,-3.06
136.48,-3.12
137.84,-3.18
139.22,-3.20
140.61,-3.20
142.02,-3.19
143.44,-3.18
144.87,-3.16
146.32,-3.15
147.78,-3.15
149.26,-3.15
150.75,-3.16
152.26,-3.17
153.78,-3.20
155.32,-3.23
156.88,-3.26
158.44,-3.28
160.03,-3.30
161.63,-3.30
163.24,-3.29
164.88,-3.27
166.53,-3.29
168.19,-3.31
169.87,-3.35
171.57,-3.39
173.29,-3.42
175.02,-3.44
176.77,-3.44
178.54,-3.44
180.32,-3.44
182.13,-3.43
183.95,-3.43
185.79,-3.43
187.65,-3.43
189.52,-3.44
191.42,-3.46
193.33,-3.47
195.27,-3.48
197.22,-3.47
199.19,-3.47
201.18,-3.47
203.19,-3.47
205.23,-3.46
207.28,-3.46
209.35,-3.46
211.44,-3.46
213.56,-3.47
215.69,-3.47
217.85,-3.48
220.03,-3.48
222.23,-3.48
224.45,-3.48
226.70,-3.47
228.96,-3.47
231.25,-3.46
233.57,-3.46
235.90,-3.46
238.26,-3.46
240.64,-3.46
243.05,-3.46
245.48,-3.47
247.93,-3.47
250.41,-3.46
252.92,-3.45
255.45,-3.45
258.00,-3.45
260.58,-3.45
263.19,-3.46
265.82,-3.46
268.48,-3.46
271.16,-3.46
273.87,-3.46
276.61,-3.47
279.38,-3.47
282.17,-3.47
284.99,-3.48
287.84,-3.47
290.72,-3.45
293.63,-3.43
296.57,-3.41
299.53,-3.39
302.53,-3.37
305.55,-3.36
308.61,-3.34
311.69,-3.32
314.81,-3.31
317.96,-3.29
321.14,-3.27
324.35,-3.24
327.59,-3.21
330.87,-3.17
334.18,-3.13
337.52,-3.10
340.90,-3.06
344.30,-3.02
347.75,-3.00
351.23,-2.98
354.74,-2.96
358.28,-2.95
361.87,-2.93
365.49,-2.92
369.14,-2.90
372.83,-2.89
376.56,-2.88
380.33,-2.86
384.13,-2.84
387.97,-2.82
391.85,-2.79
395.77,-2.77
399.73,-2.75
403.72,-2.73
407.76,-2.70
411.84,-2.68
415.96,-2.65
420.12,-2.62
424.32,-2.59
428.56,-2.56
432.85,-2.53
437.18,-2.49
441.55,-2.47
445.96,-2.45
450.42,-2.43
454.93,-2.41
459.48,-2.40
464.07,-2.39
468.71,-2.38
473.40,-2.39
478.13,-2.41
482.91,-2.45
487.74,-2.49
492.62,-2.54
497.55,-2.57
502.52,-2.59
507.55,-2.58
512.62,-2.56
517.75,-2.52
522.93,-2.49
528.16,-2.46
533.44,-2.44
538.77,-2.42
544.16,-2.43
549.60,-2.43
555.10,-2.43
560.65,-2.42
566.25,-2.38
571.92,-2.32
577.64,-2.25
583.41,-2.18
589.25,-2.10
595.14,-2.05
601.09,-2.00
607.10,-2.00
613.17,-2.06
619.30,-2.19
625.50,-2.38
631.75,-2.62
638.07,-2.91
644.45,-3.18
650.89,-3.44
657.40,-3.59
663.98,-3.64
670.62,-3.62
677.32,-3.50
684.10,-3.34
690.94,-3.17
697.85,-2.99
704.83,-2.83
711.87,-2.68
718.99,-2.54
726.18,-2.42
733.44,-2.29
740.78,-2.17
748.19,-2.05
755.67,-1.94
763.23,-1.82
770.86,-1.71
778.57,-1.59
786.35,-1.47
794.22,-1.35
802.16,-1.23
810.18,-1.11
818.28,-1.01
826.46,-0.92
834.73,-0.83
843.08,-0.74
851.51,-0.65
860.02,-0.55
868.62,-0.44
877.31,-0.33
886.08,-0.23
894.94,-0.15
903.89,-0.08
912.93,-0.05
922.06,-0.04
931.28,-0.03
940.59,-0.01
950.00,0.02
959.50,0.07
969.09,0.10
978.78,0.11
988.57,0.08
998.46,0.01
1008.44,-0.07
1018.53,-0.15
1028.71,-0.20
1039.00,-0.18
1049.39,-0.12
1059.88,-0.04
1070.48,0.07
1081.19,0.18
1092.00,0.30
1102.92,0.42
1113.95,0.54
1125.09,0.65
1136.34,0.75
1147.70,0.82
1159.18,0.86
1170.77,0.90
1182.48,0.92
1194.30,0.93
1206.25,0.95
1218.31,0.97
1230.49,1.02
1242.80,1.07
1255.22,1.17
1267.78,1.26
1280.45,1.33
1293.26,1.19
1306.19,1.05
1319.25,0.81
1332.45,0.13
1345.77,-0.73
1359.23,-1.79
1372.82,-2.85
1386.55,-3.64
1400.41,-4.11
1414.42,-3.98
1428.56,-3.85
1442.85,-3.62
1457.28,-3.40
1471.85,-3.22
1486.57,-3.09
1501.43,-2.96
1516.45,-2.89
1531.61,-2.84
1546.93,-2.84
1562.40,-2.88
1578.02,-2.94
1593.80,-3.04
1609.74,-3.15
1625.84,-3.29
1642.10,-3.40
1658.52,-3.46
1675.10,-3.47
1691.85,-3.39
1708.77,-3.29
1725.86,-3.19
1743.12,-3.10
1760.55,-3.03
1778.15,-2.96
1795.94,-2.86
1813.90,-2.74
1832.03,-2.64
1850.36,-2.55
1868.86,-2.49
1887.55,-2.37
1906.42,-2.19
1925.49,-1.91
1944.74,-1.56
1964.19,-1.21
1983.83,-0.84
2003.67,-0.48
2023.71,-0.15
2043.94,-0.02
2064.38,-0.10
2085.03,-0.63
2105.88,-1.67
2126.94,-2.96
2148.20,-4.25
2169.69,-5.20
2191.38,-5.59
2213.30,-5.16
2235.43,-4.53
2257.78,-3.88
2280.36,-3.27
2303.17,-2.71
2326.20,-2.23
2349.46,-1.77
2372.95,-1.33
2396.68,-0.91
2420.65,-0.52
2444.86,-0.15
2469.31,0.22
2494.00,0.55
2518.94,0.84
2544.13,1.11
2569.57,1.36
2595.27,1.59
2621.22,1.82
2647.43,2.01
2673.90,2.27
2700.64,2.57
2727.65,2.95
2754.93,3.36
2782.48,3.80
2810.30,4.20
2838.40,4.57
2866.79,4.88
2895.46,5.15
2924.41,5.37
2953.65,5.59
2983.19,5.79
3013.02,5.96
3043.15,6.12
3073.58,6.24
3104.32,6.34
3135.36,6.44
3166.72,6.54
3198.38,6.63
3230.37,6.71
3262.67,6.76
3295.30,6.79
3328.25,6.80
3361.53,6.80
3395.15,6.79
3429.10,6.74
3463.39,6.64
3498.03,6.50
3533.01,6.31
3568.34,6.12
3604.02,5.92
3640.06,5.72
3676.46,5.52
3713.22,5.31
3750.36,5.10
3787.86,4.93
3825.74,4.76
3864.00,4.62
3902.64,4.51
3941.66,4.41
3981.08,4.29
4020.89,4.16
4061.10,4.01
4101.71,3.83
4142.73,3.62
4184.15,3.41
4226.00,3.20
4268.26,2.98
4310.94,2.77
4354.05,2.55
4397.59,2.31
4441.56,2.06
4485.98,1.80
4530.84,1.52
4576.15,1.21
4621.91,0.89
4668.13,0.56
4714.81,0.21
4761.96,-0.12
4809.58,-0.43
4857.67,-0.67
4906.25,-0.89
4955.31,-1.13
5004.87,-1.39
5054.91,-1.64
5105.46,-1.79
5156.52,-1.82
5208.08,-1.61
5260.16,-1.29
5312.77,-0.95
5365.89,-0.67
5419.55,-0.34
5473.75,0.04
5528.49,0.45
5583.77,0.73
5639.61,0.75
5696.00,0.67
5752.96,0.33
5810.49,-0.02
5868.60,-0.31
5927.28,-0.52
5986.56,-0.62
6046.42,-0.67
6106.89,-0.73
6167.96,-0.86
6229.64,-1.07
6291.93,-1.33
6354.85,-1.53
6418.40,-1.69
6482.58,-1.77
6547.41,-1.81
6612.88,-1.81
6679.01,-1.71
6745.80,-1.54
6813.26,-1.36
6881.39,-1.20
6950.21,-1.17
7019.71,-1.23
7089.91,-1.41
7160.81,-1.73
7232.41,-2.11
7304.74,-2.55
7377.79,-3.02
7451.56,-3.44
7526.08,-3.76
7601.34,-3.97
7677.35,-3.95
7754.13,-3.85
7831.67,-3.48
7909.98,-3.02
7989.08,-2.43
8068.98,-1.70
8149.67,-0.91
8231.16,-0.06
8313.47,0.86
8396.61,1.77
8480.57,2.66
8565.38,3.37
8651.03,3.89
8737.54,4.15
8824.92,4.01
8913.17,3.47
9002.30,2.78
9092.32,1.67
9183.25,0.36
9275.08,-1.10
9367.83,-2.71
9461.51,-4.39
9556.12,-6.12
9651.68,-7.87
9748.20,-9.63
9845.68,-11.32
9944.14,-12.76
10043.58,-13.57
10144.02,-13.76
10245.46,-12.48
10347.91,-10.79
10451.39,-8.73
10555.91,-6.71
10661.46,-4.91
10768.08,-3.34
10875.76,-2.16
10984.52,-1.36
11094.36,-0.77
11205.31,-0.47
11317.36,-0.45
11430.53,-0.51
11544.84,-0.63
11660.29,-0.72
11776.89,-0.77
11894.66,-0.75
12013.60,-0.73
12133.74,-0.79
12255.08,-0.93
12377.63,-1.09
12501.41,-1.07
12626.42,-0.50
12752.68,0.49
12880.21,1.61
13009.01,2.74
13139.10,3.88
13270.49,4.62
13403.20,5.21
13537.23,5.40
13672.60,5.43
13809.33,5.33
13947.42,5.14
14086.90,4.97
14227.77,4.79
14370.04,4.57
14513.74,4.26
14658.88,3.70
14805.47,2.97
14953.52,1.96
15103.06,0.66
15254.09,-0.78
15406.63,-2.46
15560.70,-4.12
15716.30,-5.75
15873.47,-6.95
16032.20,-7.86
16192.52,-8.08
16354.45,-7.98
16517.99,-7.68
16683.17,-7.18
16850.01,-6.58
17018.51,-5.91
17188.69,-5.39
17360.58,-5.20
17534.18,-5.34
17709.53,-6.03
17886.62,-7.20
18065.49,-8.62
18246.14,-10.24
18428.60,-11.38
18612.89,-11.48
18799.02,-10.60
18987.01,-8.84
19176.88,-6.97
19368.65,-5.31
19562.33,-3.94
19757.96,-2.92
19955.54,-1.89
