frequency,raw
20.00,-2.04
20.20,-2.06
20.40,-2.09
20.61,-2.12
20.81,-2.15
21.02,-2.17
21.23,-2.20
21.44,-2.23
21.66,-2.25
21.87,-2.28
22.09,-2.31
22.31,-2.33
22.54,-2.36
22.76,-2.39
22.99,-2.41
23.22,-2.42
23.45,-2.42
23.69,-2.42
23.92,-2.40
24.16,-2.38
24.40,-2.36
24.65,-2.34
24.89,-2.33
25.14,-2.32
25.39,-2.32
25.65,-2.33
25.91,-2.35
26.16,-2.37
26.43,-2.39
26.69,-2.41
26.96,-2.43
27.23,-2.44
27.50,-2.46
27.77,-2.47
28.05,-2.48
28.33,-2.49
28.62,-2.50
28.90,-2.51
29.19,-2.54
29.48,-2.56
29.78,-2.60
30.08,-2.64
30.38,-2.68
30.68,-2.71
30.99,-2.73
31.30,-2.74
31.61,-2.73
31.93,-2.72
32.24,-2.70
32.57,-2.69
32.89,-2.68
33.22,-2.67
33.55,-2.67
33.89,-2.68
34.23,-2.69
34.57,-2.71
34.92,-2.72
35.27,-2.74
35.62,-2.74
35.97,-2.74
36.33,-2.73
36.70,-2.72
37.06,-2.72
37.43,-2.73
37.81,-2.76
38.19,-2.79
38.57,-2.82
38.95,-2.84
39.34,-2.86
39.74,-2.86
40.14,-2.86
40.54,-2.85
40.94,-2.84
41.35,-2.82
41.76,-2.81
42.18,-2.80
42.60,-2.80
43.03,-2.80
43.46,-2.81
43.90,-2.82
44.33,-2.84
44.78,-2.85
45.23,-2.86
45.68,-2.88
46.13,-2.89
46.60,-2.90
47.06,-2.91
47.53,-2.93
48.01,-2.94
48.49,-2.94
48.97,-2.95
49.46,-2.95
49.96,-2.95
50.46,-2.94
50.96,-2.94
51.47,-2.94
51.99,-2.94
52.51,-2.93
53.03,-2.93
53.56,-2.93
54.10,-2.93
54.64,-2.93
55.18,-2.93
55.74,-2.95
56.29,-2.96
56.86,-2.98
57.42,-2.99
58.00,-3.00
58.58,-2.99
59.16,-2.99
59.76,-2.99
60.35,-3.00
60.96,-3.01
61.57,-3.01
62.18,-3.02
62.80,-3.02
63.43,-3.02
64.07,-3.02
64.71,-3.02
65.35,-3.03
66.01,-3.04
66.67,-3.04
67.33,-3.05
68.01,-3.06
68.69,-3.06
69.37,-3.06
70.07,-3.05
70.77,-3.05
71.48,-3.05
72.19,-3.06
72.91,-3.06
73.64,-3.07
74.38,-3.08
75.12,-3.08
75.87,-3.07
76.63,-3.06
77.40,-3.05
78.17,-3.04
78.95,-3.03
79.74,-3.03
80.54,-3.03
81.35,-3.04
82.16,-3.04
82.98,-3.06
83.81,-3.07
84.65,-3.10
85.50,-3.12
86.35,-3.14
87.22,-3.15
88.09,-3.15
88.97,-3.15
89.86,-3.14
90.76,-3.12
91.66,-3.10
92.58,-3.08
93.51,-3.05
94.44,-3.04
95.39,-3.03
96.34,-3.03
97.30,-3.04
98.28,-3.06
99.26,-3.07
100.25,-3.08
101.25,-3.08
102.27,-3.08
103.29,-3.08
104.32,-3.08
105.37,-3.08
106.42,-3.07
107.48,-3.07
108.56,-3.06
109.64,-3.04
110.74,-3.01
111.85,-2.98
112.97,-2.94
114.10,-2.90
115.24,-2.87
116.39,-2.84
117.55,-2.81
118.73,-2.80
119.92,-2.78
121.12,-2.77
122.33,-2.75
123.55,-2.74
124.79,-2.72
126.03,-2.70
127.29,-2.68
128.57,-2.66
129.85,-2.63
131.15,-2.60
132.46,-2.57
133.79,-2.55
135.12,-2.53
136.48,-2.51
137.84,-2.49
139.22,-2.46
140.61,-2.43
142.02,-2.40
143.44,-2.37
144.87,-2.34
146.32,-2.32
147.78,-2.29
149.26,-2.27
150.75,-2.25
152.26,-2.24
153.78,-2.23
155.32,-2.23
156.88,-2.24
158.44,-2.26
160.03,-2.29
161.63,-2.34
163.24,-2.39
164.88,-2.45
166.53,-2.52
168.19,-2.59
169.87,-2.65
171.57,-2.71
173.29,-2.77
175.02,-2.83
176.77,-2.89
178.54,-2.96
180.32,-3.03
182.13,-3.12
183.95,-3.23
185.79,-3.34
187.65,-3.47
189.52,-3.61
191.42,-3.75
193.33,-3.88
195.27,-4.01
197.22,-4.14
199.19,-4.26
201.18,-4.36
203.19,-4.45
205.23,-4.51
207.28,-4.55
209.35,-4.55
211.44,-4.52
213.56,-4.47
215.69,-4.39
217.85,-4.30
220.03,-4.21
222.23,-4.12
224.45,-4.02
226.70,-3.93
228.96,-3.83
231.25,-3.74
233.57,-3.66
235.90,-3.58
238.26,-3.50
240.64,-3.42
243.05,-3.35
245.48,-3.28
247.93,-3.21
250.41,-3.14
252.92,-3.08
255.45,-3.02
258.00,-2.96
260.58,-2.90
263.19,-2.84
265.82,-2.78
268.48,-2.72
271.16,-2.66
273.87,-2.60
276.61,-2.55
279.38,-2.50
282.17,-2.47
284.99,-2.45
287.84,-2.47
290.72,-2.49
293.63,-2.52
296.57,-2.54
299.53,-2.54
302.53,-2.51
305.55,-2.44
308.61,-2.34
311.69,-2.22
314.81,-2.10
317.96,-1.97
321.14,-1.85
324.35,-1.73
327.59,-1.63
330.87,-1.55
334.18,-1.51
337.52,-1.53
340.90,-1.58
344.30,-1.70
347.75,-1.83
351.23,-1.96
354.74,-2.04
358.28,-2.04
361.87,-1.97
365.49,-1.84
369.14,-1.66
372.83,-1.46
376.56,-1.27
380.33,-1.08
384.13,-0.96
387.97,-0.95
391.85,-1.14
395.77,-1.39
399.73,-1.90
403.72,-2.59
407.76,-3.27
411.84,-3.94
415.96,-4.33
420.12,-4.52
424.32,-4.54
428.56,-4.39
432.85,-4.18
437.18,-3.93
441.55,-3.69
445.96,-3.45
450.42,-3.22
454.93,-3.01
459.48,-2.82
464.07,-2.64
468.71,-2.47
473.40,-2.30
478.13,-2.14
482.91,-1.97
487.74,-1.80
492.62,-1.61
497.55,-1.42
502.52,-1.21
507.55,-1.00
512.62,-0.80
517.75,-0.60
522.93,-0.41
528.16,-0.23
533.44,-0.04
538.77,0.16
544.16,0.41
549.60,0.69
555.10,0.99
560.65,1.31
566.25,1.66
571.92,2.01
577.64,2.37
583.41,2.72
589.25,3.06
595.14,3.26
601.09,3.37
607.10,3.19
613.17,2.64
619.30,1.67
625.50,0.29
631.75,-1.33
638.07,-3.06
644.45,-4.46
650.89,-5.61
657.40,-6.07
663.98,-6.08
670.62,-5.77
677.32,-5.24
684.10,-4.74
690.94,-4.28
697.85,-3.93
704.83,-3.67
711.87,-3.47
718.99,-3.34
726.18,-3.25
733.44,-3.16
740.78,-3.06
748.19,-2.96
755.67,-2.88
763.23,-2.81
770.86,-2.74
778.57,-2.62
786.35,-2.46
794.22,-2.22
802.16,-1.97
810.18,-1.74
818.28,-1.58
826.46,-1.46
834.73,-1.38
843.08,-1.31
851.51,-1.23
860.02,-1.11
868.62,-0.97
877.31,-0.81
886.08,-0.65
894.94,-0.49
903.89,-0.32
912.93,-0.15
922.06,-0.00
931.28,0.10
940.59,0.17
950.00,0.19
959.50,0.14
969.09,0.09
978.78,0.03
988.57,-0.00
998.46,-0.00
1008.44,0.02
1018.53,0.03
1028.71,0.03
1039.00,-0.02
1049.39,-0.09
1059.88,-0.17
1070.48,-0.18
1081.19,-0.14
1092.00,-0.05
1102.92,0.09
1113.95,0.22
1125.09,0.32
1136.34,0.40
1147.70,0.43
1159.18,0.42
1170.77,0.40
1182.48,0.36
1194.30,0.30
1206.25,0.25
1218.31,0.18
1230.49,0.07
1242.80,-0.04
1255.22,-0.21
1267.78,-0.42
1280.45,-0.67
1293.26,-0.96
1306.19,-1.26
1319.25,-1.54
1332.45,-1.75
1345.77,-1.95
1359.23,-2.14
1372.82,-2.36
1386.55,-2.62
1400.41,-2.92
1414.42,-3.28
1428.56,-3.64
1442.85,-3.91
1457.28,-4.01
1471.85,-3.96
1486.57,-3.68
1501.43,-3.34
1516.45,-3.06
1531.61,-2.90
1546.93,-2.89
1562.40,-3.04
1578.02,-3.24
1593.80,-3.49
1609.74,-3.74
1625.84,-3.98
1642.10,-4.16
1658.52,-4.34
1675.10,-4.50
1691.85,-4.71
1708.77,-4.94
1725.86,-5.18
1743.12,-5.39
1760.55,-5.54
1778.15,-5.64
1795.94,-5.67
1813.90,-5.67
1832.03,-5.67
1850.36,-5.66
1868.86,-5.63
1887.55,-5.54
1906.42,-5.41
1925.49,-5.25
1944.74,-5.11
1964.19,-4.97
1983.83,-4.83
2003.67,-4.68
2023.71,-4.52
2043.94,-4.35
2064.38,-4.19
2085.03,-4.04
2105.88,-3.89
2126.94,-3.72
2148.20,-3.53
2169.69,-3.32
2191.38,-3.10
2213.30,-2.84
2235.43,-2.57
2257.78,-2.22
2280.36,-1.83
2303.17,-1.42
2326.20,-1.01
2349.46,-0.61
2372.95,-0.21
2396.68,0.19
2420.65,0.66
2444.86,1.14
2469.31,1.63
2494.00,2.06
2518.94,2.40
2544.13,2.71
2569.57,2.96
2595.27,3.18
2621.22,3.38
2647.43,3.57
2673.90,3.77
2700.64,3.98
2727.65,4.21
2754.93,4.45
2782.48,4.70
2810.30,4.96
2838.40,5.22
2866.79,5.44
2895.46,5.64
2924.41,5.78
2953.65,5.91
2983.19,5.98
3013.02,6.04
3043.15,6.07
3073.58,6.06
3104.32,6.00
3135.36,5.91
3166.72,5.78
3198.38,5.65
3230.37,5.49
3262.67,5.33
3295.30,5.16
3328.25,4.97
3361.53,4.77
3395.15,4.55
3429.10,4.33
3463.39,4.12
3498.03,3.94
3533.01,3.80
3568.34,3.68
3604.02,3.58
3640.06,3.47
3676.46,3.34
3713.22,3.17
3750.36,2.99
3787.86,2.77
3825.74,2.56
3864.00,2.35
3902.64,2.15
3941.66,1.95
3981.08,1.75
4020.89,1.55
4061.10,1.36
4101.71,1.15
4142.73,0.95
4184.15,0.75
4226.00,0.55
4268.26,0.36
4310.94,0.18
4354.05,0.02
4397.59,-0.14
4441.56,-0.28
4485.98,-0.41
4530.84,-0.53
4576.15,-0.62
4621.91,-0.70
4668.13,-0.76
4714.81,-0.78
4761.96,-0.78
4809.58,-0.75
4857.67,-0.67
4906.25,-0.56
4955.31,-0.44
5004.87,-0.33
5054.91,-0.27
5105.46,-0.25
5156.52,-0.29
5208.08,-0.41
5260.16,-0.60
5312.77,-0.83
5365.89,-1.12
5419.55,-1.44
5473.75,-1.79
5528.49,-2.16
5583.77,-2.53
5639.61,-2.87
5696.00,-3.20
5752.96,-3.44
5810.49,-3.66
5868.60,-3.79
5927.28,-3.90
5986.56,-3.96
6046.42,-4.01
6106.89,-4.06
6167.96,-4.15
6229.64,-4.31
6291.93,-4.56
6354.85,-4.89
6418.40,-5.20
6482.58,-5.43
6547.41,-5.38
6612.88,-5.15
6679.01,-4.62
6745.80,-4.03
6813.26,-3.45
6881.39,-2.98
6950.21,-2.68
7019.71,-2.49
7089.91,-2.44
7160.81,-2.52
7232.41,-2.66
7304.74,-2.84
7377.79,-3.03
7451.56,-3.20
7526.08,-3.32
7601.34,-3.37
7677.35,-3.30
7754.13,-3.18
7831.67,-2.89
7909.98,-2.54
7989.08,-2.11
8068.98,-1.54
8149.67,-0.89
8231.16,-0.12
8313.47,0.78
8396.61,1.71
8480.57,2.62
8565.38,3.36
8651.03,3.89
8737.54,4.16
8824.92,4.03
8913.17,3.47
9002.30,2.76
9092.32,1.65
9183.25,0.40
9275.08,-0.93
9367.83,-2.29
9461.51,-3.64
9556.12,-4.97
9651.68,-6.26
9748.20,-7.49
9845.68,-8.31
9944.14,-8.55
10043.58,-8.07
10144.02,-7.08
10245.46,-5.69
10347.91,-4.31
10451.39,-2.99
10555.91,-1.97
10661.46,-1.15
10768.08,-0.53
10875.76,-0.13
10984.52,0.19
11094.36,0.48
11205.31,0.80
11317.36,1.22
11430.53,1.69
11544.84,2.21
11660.29,2.71
11776.89,3.14
11894.66,3.27
12013.60,3.35
12133.74,3.27
12255.08,3.05
12377.63,2.78
12501.41,2.56
12626.42,2.40
12752.68,2.25
12880.21,1.97
13009.01,1.60
13139.10,1.24
13270.49,0.42
13403.20,-0.56
13537.23,-1.91
13672.60,-3.37
13809.33,-4.91
13947.42,-6.28
14086.90,-7.42
14227.77,-8.41
14370.04,-9.11
14513.74,-9.46
14658.88,-9.15
14805.47,-8.70
14953.52,-8.02
15103.06,-7.50
15254.09,-7.06
15406.63,-7.09
15560.70,-7.25
15716.30,-7.62
15873.47,-7.96
16032.20,-8.21
16192.52,-8.12
16354.45,-7.79
16517.99,-7.30
16683.17,-6.70
16850.01,-6.14
17018.51,-5.63
17188.69,-5.32
17360.58,-5.34
17534.18,-5.65
17709.53,-6.50
17886.62,-7.78
18065.49,-9.25
18246.14,-10.80
18428.60,-11.67
18612.89,-11.86
18799.02,-11.46
18987.01,-10.62
19176.88,-9.81
19368.65,-9.17
19562.33,-8.72
19757.96,-8.46
19955.54,-8.19
